0.004300 1.320000
0.004320 1.327300
0.004340 1.361900
0.004360 1.243400
0.004380 1.278100
0.004400 1.308700
0.004420 1.239400
0.004440 1.246700
0.004460 1.320800
0.004480 1.282900
0.004500 1.204000
0.004520 1.281300
0.004540 1.340100
0.004560 1.428000
0.004580 1.677800
0.004600 2.179000
0.004620 2.804400
0.004640 2.898700
0.004660 2.907500
0.004680 2.914800
0.004700 2.910000
0.004720 2.793900
0.004740 2.287800
0.004760 1.855900
0.004780 1.615800
0.004800 1.490800
0.004820 1.424000
0.004840 1.220900
0.004860 1.353000
0.004880 1.424800
0.004900 1.202300
0.004920 1.535200
0.004940 1.531100
0.004960 1.569800
0.004980 1.554500
0.005000 1.527900
0.005020 1.485200
0.005040 1.419100
0.005060 1.321600
0.005080 1.309500
0.005100 1.208800
0.005120 1.222500
0.005140 1.118500
0.005160 1.200700
0.005180 1.319200
0.005200 1.262000
0.005220 1.258800
0.005240 1.341800
0.005260 1.349000
0.005280 1.364300
0.005300 1.345800
0.005320 1.361900
0.005340 1.334500
0.005360 1.108100
0.005380 1.343400
0.005400 1.297400
0.005420 1.195100
0.005440 1.183000
0.005460 1.297400
0.005480 1.275700
0.005500 1.195900
0.005520 1.287800
0.005540 1.253900
0.005560 1.296600
0.005580 1.333700
0.005600 1.417500
0.005620 1.581100
0.005640 2.172600
0.005660 2.653700
0.005680 2.902700
0.005700 2.897100
0.005720 2.918800
0.005740 2.828600
0.005760 2.720600
0.005780 2.242700
0.005800 1.849500
0.005820 1.621400
0.005840 1.411900
0.005860 1.382900
0.005880 1.324800
0.005900 1.391700
0.005920 1.443300
0.005940 1.156400
0.005960 1.539200
0.005980 1.580300
0.006000 1.615800
0.006020 1.610900
0.006040 1.593200
0.006060 1.476300
0.006080 1.444900
0.006100 1.324000
0.006120 1.327300
0.006140 1.208000
0.006160 1.266800
0.006180 1.259600
0.006200 1.302300
0.006220 1.316000
0.006240 1.318400
0.006260 1.365900
0.006280 1.407800
0.006300 1.420700
0.006320 1.404600
0.006340 1.428800
0.006360 1.365900
0.006380 1.374800
0.006400 1.352200
0.006420 1.288600
0.006440 1.287800
0.006460 1.326400
0.006480 1.234600
0.006500 1.263600
0.006520 1.269200
0.006540 1.312700
0.006560 0.933200
0.006580 1.262000
0.006600 1.324000
0.006620 1.556100
0.006640 1.888900
0.006660 2.405500
0.006680 2.870500
0.006700 2.901100
0.006720 2.910800
0.006740 2.735900
0.006760 2.312800
0.006780 1.896200
0.006800 1.644800
0.006820 1.403000
0.006840 1.361100
0.006860 1.341800
0.006880 1.334500
0.006900 1.233000
0.006920 1.443300
0.006940 1.501300
0.006960 1.573000
0.006980 1.619000
0.007000 1.626200
0.007020 1.584300
0.007040 1.544000
0.007060 1.451400
0.007080 1.148400
0.007100 1.302300
0.007120 1.256300
0.007140 1.166100
0.007160 1.246700
0.007180 1.143500
0.007200 1.282900
0.007220 1.233800
0.007240 1.387700
0.007260 1.421500
0.007280 1.370000
0.007300 1.413500
0.007320 1.249900
0.007340 1.357900
0.007360 1.375600
0.007380 1.253100
0.007400 1.365100
0.007420 1.271600
0.007440 1.316800
0.007460 1.274900
0.007480 1.383700
0.007500 1.290200
0.007520 1.192700
0.007540 1.341000
0.007560 1.404600
0.007580 1.636700
0.007600 2.025900
0.007620 2.641600
0.007640 2.897900
0.007660 2.893800
0.007680 2.893800
0.007700 2.827800
0.007720 2.463500
0.007740 2.040400
0.007760 1.594800
0.007780 1.601200
0.007800 1.557700
0.007820 1.511800
0.007840 1.482000
0.007860 1.452200
0.007880 1.428800
0.007900 1.415100
0.007920 1.278100
0.007940 1.396600
0.007960 1.461800
0.007980 1.451400
0.008000 1.411100
0.008020 1.427200
0.008040 1.328100
0.008060 1.308700
0.008080 1.308700
0.008100 1.162900
0.008120 1.287800
0.008140 1.301500
0.008160 1.067000
0.008180 1.302300
0.008200 1.202300
0.008220 1.218500
0.008240 1.238600
0.008260 1.274100
0.008280 1.359500
0.008300 1.353800
0.008320 1.306300
0.008340 1.298200
0.008360 1.183000
0.008380 1.248300
0.008400 1.214400
0.008420 1.206400
0.008440 1.227300
0.008460 1.266000
0.008480 1.270800
0.008500 1.273300
0.008520 1.285300
0.008540 1.286200
0.008560 1.278900
0.008580 1.331300
0.008600 1.760800
0.008620 2.249200
0.008640 2.752000
0.008660 2.878500
0.008680 2.878500
0.008700 2.802800
0.008720 2.403900
0.008740 1.992900
0.008760 1.705200
0.008780 1.543200
0.008800 1.401400
0.008820 1.424000
0.008840 1.366700
0.008860 1.253900
0.008880 1.299900
0.008900 1.071800
0.008920 1.365100
0.008940 1.305500
0.008960 1.443300
0.008980 1.482000
0.009000 1.457800
0.009020 1.465900
0.009040 1.347400
0.009060 1.327300
0.009080 1.301500
0.009100 1.263600
0.009120 1.183000
0.009140 1.261200
0.009160 1.251500
0.009180 1.274900
0.009200 1.260400
0.009220 1.215200
0.009240 1.353800
0.009260 1.195100
0.009280 1.237000
0.009300 1.352200
0.009320 1.224900
0.009340 1.338500
0.009360 1.314400
0.009380 1.328100
0.009400 1.342600
0.009420 1.334500
0.009440 1.321600
0.009460 1.220900
0.009480 1.304700
0.009500 1.312700
0.009520 1.250700
0.009540 1.566600
0.009560 1.936500
0.009580 2.461100
0.009600 2.874500
0.009620 2.885000
0.009640 2.891400
0.009660 2.606200
0.009680 2.170200
0.009700 1.845400
0.009720 1.598000
0.009740 1.470700
0.009760 1.445700
0.009780 1.348200
0.009800 1.368400
0.009820 1.336100
0.009840 1.357100
0.009860 1.396600
0.009880 1.295800
0.009900 1.493300
0.009920 1.503700
0.009940 1.377200
0.009960 1.484400
0.009980 1.209600
0.010000 1.310300
0.010020 1.308700
0.010040 1.199900
0.010060 1.262800
0.010080 1.246700
0.010100 1.240200
0.010120 1.233000
0.010140 1.287000
0.010160 1.186200
0.010180 1.013800
0.010200 1.322400
0.010220 1.370000
0.010240 1.373200
0.010260 1.349000
0.010280 1.317600
0.010300 1.334500
0.010320 1.241000
0.010340 1.116900
0.010360 1.237000
0.010380 1.056500
0.010400 1.292600
0.010420 1.274900
0.010440 1.311100
0.010460 1.218500
0.010480 1.199100
0.010500 1.195100
0.010520 1.364300
0.010540 1.364300
0.010560 1.216800
0.010580 1.244200
0.010600 1.303900
0.010620 1.558500
0.010640 1.880100
0.010660 2.462700
0.010680 2.891400
0.010700 2.897900
0.010720 2.895500
0.010740 2.890600
0.010760 2.504600
0.010780 2.104900
0.010800 1.793800
0.010820 1.623000
0.010840 1.569800
0.010860 1.559300
0.010880 1.499700
0.010900 1.483600
0.010920 1.376400
0.010940 1.396600
0.010960 1.358700
0.010980 1.420700
0.011000 1.447300
0.011020 1.349800
0.011040 1.366700
0.011060 1.374800
0.011080 1.331300
0.011100 1.295000
0.011120 1.291000
0.011140 1.259600
0.011160 1.216000
0.011180 1.298200
0.011200 1.117700
0.011220 1.292600
0.011240 1.207200
0.011260 1.284500
0.011280 1.356300
0.011300 1.372400
0.011320 1.342600
0.011340 1.322400
0.011360 1.342600
0.011380 1.291800
0.011400 1.324800
0.011420 1.128200
0.011440 1.236200
0.011460 1.257100
0.011480 1.121800
0.011500 1.108900
0.011520 1.283700
0.011540 1.037100
0.011560 1.156400
0.011580 1.237800
0.011600 1.278900
0.011620 1.331300
0.011640 1.235400
0.011660 0.976700
0.011680 1.291800
0.011700 1.293400
0.011720 1.247500
0.011740 1.221700
0.011760 1.345800
0.011780 1.723700
0.011800 2.210500
0.011820 2.677100
0.011840 2.907500
0.011860 2.905100
0.011880 2.887400
0.011900 2.569100
0.011920 2.146800
0.011940 1.802700
0.011960 1.461800
0.011980 1.468300
0.012000 1.493300
0.012020 1.404600
0.012040 1.440900
0.012060 1.384500
0.012080 1.403000
0.012100 1.434400
0.012120 1.472300
0.012140 1.522300
0.012160 1.531900
0.012180 1.395800
0.012200 1.444100
0.012220 1.268400
0.012240 1.364300
0.012260 1.325600
0.012280 1.044400
0.012300 1.269200
0.012320 1.276500
0.012340 1.264400
0.012360 1.186200
0.012380 1.282100
0.012400 1.356300
0.012420 1.299000
0.012440 1.228100
0.012460 1.370000
0.012480 1.356300
0.012500 1.364300
0.012520 1.241000
0.012540 1.340100
0.012560 1.296600
0.012580 1.108900
0.012600 1.189500
0.012620 1.255500
0.012640 1.260400
0.012660 1.244200
0.012680 1.241800
0.012700 1.293400
0.012720 1.287000
0.012740 1.320800
0.012760 1.279700
0.012780 1.303900
0.012800 1.273300
0.012820 1.336900
0.012840 1.504500
0.012860 1.665700
0.012880 2.277400
0.012900 2.698800
0.012920 2.895500
0.012940 2.904300
0.012960 2.836600
0.012980 2.456300
0.013000 2.059800
0.013020 1.741500
0.013040 1.603700
0.013060 1.495700
0.013080 1.503700
0.013100 1.448900
0.013120 1.409500
0.013140 1.391700
0.013160 1.422300
0.013180 1.453000
0.013200 1.440900
0.013220 1.514200
0.013240 1.370000
0.013260 1.466700
0.013280 1.411100
0.013300 1.404600
0.013320 1.355500
0.013340 1.288600
0.013360 1.272500
0.013380 1.278100
0.013400 1.089500
0.013420 1.249900
0.013440 1.068600
0.013460 1.260400
0.013480 1.336900
0.013500 1.326400
0.013520 1.343400
0.013540 1.319200
0.013560 1.144300
0.013580 1.339300
0.013600 1.222500
0.013620 1.330500
0.013640 1.281300
0.013660 1.269200
0.013680 1.298200
0.013700 1.085500
0.013720 1.276500
0.013740 1.295800
0.013760 1.281300
0.013780 1.288600
0.013800 1.288600
0.013820 1.299000
0.013840 1.287000
0.013860 1.196700
0.013880 1.332900
0.013900 1.328100
0.013920 1.323200
0.013940 1.331300
0.013960 1.386900
0.013980 1.712500
0.014000 2.210500
0.014020 2.698800
0.014040 2.905100
0.014060 2.885800
0.014080 2.889800
0.014100 2.595700
0.014120 2.150000
0.014140 1.814800
0.014160 1.618200
0.014180 1.372400
0.014200 1.472300
0.014220 1.458600
0.014240 1.345800
0.014260 1.473100
0.014280 1.436800
0.014300 1.489200
0.014320 1.405400
0.014340 1.511800
0.014360 1.523900
0.014380 1.497300
0.014400 1.384500
0.014420 1.407000
0.014440 1.283700
0.014460 1.328100
0.014480 1.269200
0.014500 1.146700
0.014520 1.204000
0.014540 1.234600
0.014560 1.342600
0.014580 1.139500
0.014600 1.288600
0.014620 1.249900
0.014640 1.308700
0.014660 1.359500
0.014680 1.364300
0.014700 1.362700
0.014720 1.352200
0.014740 1.311100
0.014760 1.325600
0.014780 1.301500
0.014800 1.190300
0.014820 1.304700
0.014840 1.275700
0.014860 1.237000
0.014880 1.198300
0.014900 1.283700
0.014920 1.288600
0.014940 1.300700
0.014960 1.307900
0.014980 1.333700
0.015000 1.262800
0.015020 1.317600
0.015040 1.311100
0.015060 1.334500
0.015080 1.440100
0.015100 1.698800
0.015120 2.175000
0.015140 2.642400
0.015160 2.897900
0.015180 2.897100
0.015200 2.769700
0.015220 2.337800
0.015240 2.035600
0.015260 1.701200
0.015280 1.422300
0.015300 1.431200
0.015320 1.361900
0.015340 1.029100
0.015360 1.412700
0.015380 1.451400
0.015400 1.493300
0.015420 1.563400
0.015440 1.557700
0.015460 1.567400
0.015480 1.591600
0.015500 1.560100
0.015520 1.485200
0.015540 1.404600
0.015560 1.378800
0.015580 1.302300
0.015600 1.217700
0.015620 0.930800
0.015640 1.183800
0.015660 1.162900
0.015680 1.258800
0.015700 1.149200
0.015720 1.331300
0.015740 1.174900
0.015760 1.161200
0.015780 1.382900
0.015800 1.357100
0.015820 1.356300
0.015840 1.241000
0.015860 1.096800
0.015880 1.173300
0.015900 1.299900
0.015920 1.266000
0.015940 1.212800
0.015960 1.285300
0.015980 1.221700
0.016000 1.265200
0.016020 1.268400
0.016040 1.150800
0.016060 1.075000
0.016080 1.250700
0.016100 1.262000
0.016120 1.303900
0.016140 1.345000
0.016160 1.333700
0.016180 1.328100
0.016200 1.440100
0.016220 1.673000
0.016240 2.093600
0.016260 2.652900
0.016280 2.912400
0.016300 2.904300
0.016320 2.893800
0.016340 2.784200
0.016360 2.363600
0.016380 1.896200
0.016400 1.693900
0.016420 1.535200
0.016440 1.482000
0.016460 1.438500
0.016480 1.469100
0.016500 1.490800
0.016520 1.457800
0.016540 1.504500
0.016560 1.374800
0.016580 1.225700
0.016600 1.431200
0.016620 1.533600
0.016640 1.469900
0.016660 1.466700
0.016680 1.344200
0.016700 1.323200
0.016720 1.198300
0.016740 1.306300
0.016760 1.285300
0.016780 1.132200
0.016800 1.072600
0.016820 1.304700
0.016840 1.332900
0.016860 1.317600
0.016880 1.334500
0.016900 1.247500
0.016920 1.382100
0.016940 1.370800
0.016960 1.313600
0.016980 1.336100
0.017000 1.253100
0.017020 1.327300
0.017040 1.274900
0.017060 1.260400
0.017080 1.276500
0.017100 1.130600
0.017120 1.277300
0.017140 1.227300
0.017160 1.276500
0.017180 1.287800
0.017200 1.295000
0.017220 0.976700
0.017240 1.205600
0.017260 1.269200
0.017280 1.100000
0.017300 1.173300
0.017320 1.205600
0.017340 1.378000
0.017360 1.731800
0.017380 2.212900
0.017400 2.753600
0.017420 2.888200
0.017440 2.910800
0.017460 2.895500
0.017480 2.801200
0.017500 2.363600
0.017520 1.930000
0.017540 1.505300
0.017560 1.569800
0.017580 1.457800
0.017600 1.471500
0.017620 1.479600
0.017640 1.351400
0.017660 1.507800
0.017680 1.405400
0.017700 1.509400
0.017720 1.490000
0.017740 1.578700
0.017760 1.552100
0.017780 1.473100
0.017800 1.457000
0.017820 1.253900
0.017840 1.365100
0.017860 1.264400
0.017880 1.280500
0.017900 1.277300
0.017920 1.317600
0.017940 1.270800
0.017960 1.336900
0.017980 1.335300
0.018000 1.282900
0.018020 1.327300
0.018040 1.365900
0.018060 1.291000
0.018080 1.348200
0.018100 1.207200
0.018120 1.373200
0.018140 1.156400
0.018160 1.346600
0.018180 1.327300
0.018200 1.295000
0.018220 1.287000
0.018240 1.247500
0.018260 1.228100
0.018280 1.126600
0.018300 1.240200
0.018320 1.137100
0.018340 1.301500
0.018360 1.316000
0.018380 1.133800
0.018400 1.249900
0.018420 1.332100
0.018440 1.190300
0.018460 1.303100
0.018480 1.482000
0.018500 1.637500
0.018520 2.288600
0.018540 2.775400
0.018560 2.898700
0.018580 2.902700
0.018600 2.878500
0.018620 2.522300
0.018640 2.105700
0.018660 1.751900
0.018680 1.546400
0.018700 1.354700
0.018720 1.351400
0.018740 1.341000
0.018760 1.379600
0.018780 1.367500
0.018800 1.482000
0.018820 1.355500
0.018840 1.649600
0.018860 1.645600
0.018880 1.646400
0.018900 1.551300
0.018920 1.536000
0.018940 1.369200
0.018960 1.378800
0.018980 1.076600
0.019000 1.233800
0.019020 1.278900
0.019040 1.262000
0.019060 1.233000
0.019080 1.304700
0.019100 1.340100
0.019120 1.336100
0.019140 1.397400
0.019160 1.417500
0.019180 1.391700
0.019200 1.262000
0.019220 1.220100
0.019240 1.370000
0.019260 1.361900
0.019280 1.283700
0.019300 1.319200
0.019320 1.291800
0.019340 1.266000
0.019360 1.305500
0.019380 1.079000
0.019400 1.273300
0.019420 1.300700
0.019440 1.121000
0.019460 1.296600
0.019480 1.269200
0.019500 1.326400
0.019520 1.297400
0.019540 1.249900
0.019560 1.445700
0.019580 1.826100
0.019600 2.324900
0.019620 2.818900
0.019640 2.884200
0.019660 2.910800
0.019680 2.895500
0.019700 2.739100
0.019720 2.350700
0.019740 1.883300
0.019760 1.500500
0.019780 1.490800
0.019800 1.471500
0.019820 1.444900
0.019840 1.457000
0.019860 1.474700
0.019880 1.488400
0.019900 1.518200
0.019920 1.482800
0.019940 1.585900
0.019960 1.562600
0.019980 1.534400
0.020000 1.511800
0.020020 1.454600
0.020040 1.403000
0.020060 1.336900
0.020080 1.300700
0.020100 1.281300
0.020120 1.101600
0.020140 1.215200
0.020160 1.282100
0.020180 1.216800
0.020200 1.315200
0.020220 1.354700
0.020240 1.215200
0.020260 1.386900
0.020280 1.281300
0.020300 1.286200
0.020320 1.354700
0.020340 1.300700
0.020360 1.241000
0.020380 1.288600
0.020400 1.292600
0.020420 1.234600
0.020440 1.266800
0.020460 1.083900
0.020480 1.249900
0.020500 1.152400
0.020520 1.250700
0.020540 1.253100
0.020560 1.294200
0.020580 1.302300
0.020600 1.305500
0.020620 1.266000
0.020640 1.260400
0.020660 1.321600
0.020680 1.579500
0.020700 1.959900
0.020720 2.525600
0.020740 2.877700
0.020760 2.897900
0.020780 2.888200
0.020800 2.890600
0.020820 2.671400
0.020840 2.212100
0.020860 1.825300
0.020880 1.594000
0.020900 1.495700
0.020920 1.378800
0.020940 1.451400
0.020960 1.429600
0.020980 1.436000
0.021000 1.473100
0.021020 1.449700
0.021040 1.408600
0.021060 1.527900
0.021080 1.552900
0.021100 1.515000
0.021120 1.494900
0.021140 1.404600
0.021160 1.372400
0.021180 1.328900
0.021200 1.303100
0.021220 1.270800
0.021240 1.179000
0.021260 1.235400
0.021280 1.249100
0.021300 1.132200
0.021320 1.336100
0.021340 1.345000
0.021360 1.354700
0.021380 1.339300
0.021400 1.350600
0.021420 1.333700
0.021440 1.345800
0.021460 1.335300
0.021480 1.337700
0.021500 1.286200
0.021520 1.282900
0.021540 1.270800
0.021560 1.226500
0.021580 1.183000
0.021600 1.237000
0.021620 1.244200
0.021640 1.256300
0.021660 1.204000
0.021680 1.268400
0.021700 1.147500
0.021720 1.244200
0.021740 1.207200
0.021760 1.328100
0.021780 1.333700
0.021800 1.340100
0.021820 1.330500
0.021840 1.743100
0.021860 2.255600
0.021880 2.760900
0.021900 2.887400
0.021920 2.941400
0.021940 2.895500
0.021960 2.756800
0.021980 2.254000
0.022000 1.905100
0.022020 1.621400
0.022040 1.417500
0.022060 1.351400
0.022080 1.285300
0.022100 1.381200
0.022120 1.444900
0.022140 1.498900
0.022160 1.490800
0.022180 1.474700
0.022200 1.621400
0.022220 1.519900
0.022240 1.596400
0.022260 1.492500
0.022280 1.473100
0.022300 1.376400
0.022320 1.311100
0.022340 1.295000
0.022360 1.276500
0.022380 1.279700
0.022400 1.090300
0.022420 1.287800
0.022440 1.316000
0.022460 1.300700
0.022480 1.368400
0.022500 1.365100
0.022520 1.382100
0.022540 1.386100
0.022560 1.399800
0.022580 1.389300
0.022600 1.292600
0.022620 1.346600
0.022640 1.313600
0.022660 1.271600
0.022680 1.215200
0.022700 1.250700
0.022720 1.244200
0.022740 1.261200
0.022760 1.287800
0.022780 1.261200
0.022800 1.228100
0.022820 1.316000
0.022840 1.370000
0.022860 1.262800
0.022880 1.298200
0.022900 1.261200
0.022920 1.564200
0.022940 1.913900
0.022960 2.464300
0.022980 2.876900
0.023000 2.904300
0.023020 2.905900
0.023040 2.868900
0.023060 2.519100
0.023080 2.090400
0.023100 1.742300
0.023120 1.566600
0.023140 1.415900
0.023160 1.258800
0.023180 1.359500
0.023200 1.369200
0.023220 1.359500
0.023240 1.443300
0.023260 1.474700
0.023280 1.579500
0.023300 1.597200
0.023320 1.519900
0.023340 1.560100
0.023360 1.469100
0.023380 1.414300
0.023400 1.335300
0.023420 1.299000
0.023440 1.089500
0.023460 1.261200
0.023480 1.207200
0.023500 1.183800
0.023520 1.184600
0.023540 1.260400
0.023560 1.214400
0.023580 1.341000
0.023600 1.349800
0.023620 1.316000
0.023640 1.328900
0.023660 1.358700
0.023680 1.336900
0.023700 1.293400
0.023720 1.208000
0.023740 1.232200
0.023760 1.224900
0.023780 1.256300
0.023800 1.237800
0.023820 1.183000
0.023840 1.263600
0.023860 1.276500
0.023880 1.211200
0.023900 1.289400
0.023920 1.303100
0.023940 1.295000
0.023960 1.269200
0.023980 1.324000
0.024000 1.213600
0.024020 1.347400
0.024040 1.454600
0.024060 1.717300
0.024080 2.208900
0.024100 2.723000
0.024120 2.897900
0.024140 2.895500
0.024160 2.882600
0.024180 2.849500
0.024200 2.433700
0.024220 1.996100
0.024240 1.675400
0.024260 1.525500
0.024280 1.435200
0.024300 1.399000
0.024320 1.405400
0.024340 1.413500
0.024360 1.434400
0.024380 1.417500
0.024400 1.540000
0.024420 1.485200
0.024440 1.590800
0.024460 1.573000
0.024480 1.475500
0.024500 1.477100
0.024520 1.416700
0.024540 1.347400
0.024560 1.288600
0.024580 1.254700
0.024600 1.238600
0.024620 1.174900
0.024640 1.256300
0.024660 1.261200
0.024680 1.234600
0.024700 1.188600
0.024720 1.287800
0.024740 1.344200
0.024760 1.223300
0.024780 1.311900
0.024800 1.306300
0.024820 1.287800
0.024840 1.087100
0.024860 1.308700
0.024880 1.262800
0.024900 1.228900
0.024920 1.272500
0.024940 1.191100
0.024960 1.241800
0.024980 1.124200
0.025000 1.270000
0.025020 1.270800
0.025040 1.257900
0.025060 1.288600
0.025080 1.302300
0.025100 1.266800
0.025120 1.320800
0.025140 1.305500
0.025160 1.383700
0.025180 1.654400
0.025200 2.093600
0.025220 2.647300
0.025240 2.893000
0.025260 2.889000
0.025280 2.910800
0.025300 2.792300
0.025320 2.355500
0.025340 1.962300
0.025360 1.682600
0.025380 1.508600
0.025400 1.417500
0.025420 1.257100
0.025440 1.253900
0.025460 1.322400
0.025480 1.431200
0.025500 1.442500
0.025520 1.513400
0.025540 1.592400
0.025560 1.499700
0.025580 1.523900
0.025600 1.525500
0.025620 1.341000
0.025640 1.386900
0.025660 1.305500
0.025680 1.298200
0.025700 0.968600
0.025720 1.242600
0.025740 0.957400
0.025760 1.237800
0.025780 1.178200
0.025800 1.267600
0.025820 1.278100
0.025840 1.219300
0.025860 1.291000
0.025880 1.205600
0.025900 1.289400
0.025920 1.296600
0.025940 1.336900
0.025960 1.312700
0.025980 1.287800
0.026000 0.991200
0.026020 1.150000
0.026040 1.285300
0.026060 1.159600
0.026080 1.282100
0.026100 1.289400
0.026120 1.179800
0.026140 1.325600
0.026160 1.279700
0.026180 1.320800
0.026200 1.269200
0.026220 1.353000
0.026240 1.391700
0.026260 1.604500
0.026280 1.974400
0.026300 2.474800
0.026320 2.844700
0.026340 2.903500
0.026360 2.872100
0.026380 2.802000
0.026400 2.420800
0.026420 2.033200
0.026440 1.681000
0.026460 1.506200
0.026480 1.269200
0.026500 1.335300
0.026520 1.370000
0.026540 1.386100
0.026560 1.452200
0.026580 1.231400
0.026600 1.457000
0.026620 1.505300
0.026640 1.523900
0.026660 1.581900
0.026680 1.453800
0.026700 1.473900
0.026720 1.407000
0.026740 1.341000
0.026760 1.273300
0.026780 1.224900
0.026800 1.262800
0.026820 1.183800
0.026840 1.201500
0.026860 1.173300
0.026880 1.259600
0.026900 1.224900
0.026920 1.299000
0.026940 1.349000
0.026960 1.320800
0.026980 1.237000
0.027000 1.357100
0.027020 1.328900
0.027040 1.227300
0.027060 1.308700
0.027080 1.272500
0.027100 1.197500
0.027120 1.307900
0.027140 1.303100
0.027160 1.292600
0.027180 1.245900
0.027200 1.316000
0.027220 1.329700
0.027240 1.298200
0.027260 1.207200
0.027280 1.269200
0.027300 1.327300
0.027320 1.342600
0.027340 1.328900
0.027360 1.368400
0.027380 1.502100
0.027400 1.791400
0.027420 2.189500
0.027440 2.619900
0.027460 2.858400
0.027480 2.863200
0.027500 2.730300
0.027520 2.400700
0.027540 2.050100
0.027560 1.664100
0.027580 1.527100
0.027600 1.346600
0.027620 1.281300
0.027640 1.228100
0.027660 1.295000
0.027680 1.353000
0.027700 1.276500
0.027720 1.522300
0.027740 1.602100
0.027760 1.614900
0.027780 1.668100
0.027800 1.533600
0.027820 1.580300
0.027840 1.362700
0.027860 1.407800
0.027880 1.353800
0.027900 1.216000
0.027920 1.089500
0.027940 1.200700
0.027960 1.232200
0.027980 1.225700
0.028000 1.283700
0.028020 1.300700
0.028040 1.141900
0.028060 1.337700
0.028080 1.260400
0.028100 1.382900
0.028120 1.406200
0.028140 1.368400
0.028160 1.334500
0.028180 1.233800
0.028200 1.331300
0.028220 1.295800
0.028240 1.212000
0.028260 1.306300
0.028280 1.289400
0.028300 1.320800
0.028320 1.266800
0.028340 1.330500
0.028360 1.071000
0.028380 1.391700
0.028400 1.525500
0.028420 1.847000
0.028440 2.296700
0.028460 2.698000
0.028480 2.868100
0.028500 2.825300
0.028520 2.576300
0.028540 2.331400
0.028560 1.949400
0.028580 1.725300
0.028600 1.548100
0.028620 1.415100
0.028640 1.379600
0.028660 1.345800
0.028680 1.310300
0.028700 1.409500
0.028720 1.459400
0.028740 1.551300
0.028760 1.608500
0.028780 1.639900
0.028800 1.557700
0.028820 1.534400
0.028840 1.561000
0.028860 1.478800
0.028880 1.403800
0.028900 1.346600
0.028920 1.074200
0.028940 1.274100
0.028960 1.228900
0.028980 1.196700
0.029000 1.269200
0.029020 1.242600
0.029040 1.201500
0.029060 1.321600
0.029080 1.332100
0.029100 1.231400
0.029120 1.204800
0.029140 1.365100
0.029160 1.399000
0.029180 1.311100
0.029200 1.274100
0.029220 1.332100
0.029240 1.274100
0.029260 1.337700
0.029280 1.301500
0.029300 1.318400
0.029320 1.340100
0.029340 1.279700
0.029360 1.531100
0.029380 1.858300
0.029400 2.350700
0.029420 2.806000
0.029440 2.901100
0.029460 2.901100
0.029480 2.864000
0.029500 2.525600
0.029520 2.090400
0.029540 1.814000
0.029560 1.626200
0.029580 1.494900
0.029600 1.346600
0.029620 1.416700
0.029640 1.245100
0.029660 1.485200
0.029680 1.495700
0.029700 1.531900
0.029720 1.553700
0.029740 1.594000
0.029760 1.614900
0.029780 1.594800
0.029800 1.550500
0.029820 1.332100
0.029840 1.431200
0.029860 1.370800
0.029880 1.286200
0.029900 1.223300
0.029920 0.989600
0.029940 1.133000
0.029960 1.265200
0.029980 1.256300
0.030000 1.287000
0.030020 1.186200
0.030040 1.378800
0.030060 1.378800
0.030080 1.373200
0.030100 1.243400
0.030120 1.374000
0.030140 1.259600
0.030160 1.237000
0.030180 1.213600
0.030200 1.317600
0.030220 1.314400
0.030240 1.314400
0.030260 1.259600
0.030280 1.311100
0.030300 1.293400
0.030320 1.340100
0.030340 1.258800
0.030360 1.749500
0.030380 2.276600
0.030400 2.746400
0.030420 2.875300
0.030440 2.906700
0.030460 2.910000
0.030480 2.824500
0.030500 2.417600
0.030520 1.992100
0.030540 1.689100
0.030560 1.406200
0.030580 1.427200
0.030600 1.328100
0.030620 1.262800
0.030640 1.440100
0.030660 1.447300
0.030680 1.511000
0.030700 1.574700
0.030720 1.617400
0.030740 1.614100
0.030760 1.619800
0.030780 1.533600
0.030800 1.522300
0.030820 1.428800
0.030840 1.354700
0.030860 1.174900
0.030880 1.276500
0.030900 1.248300
0.030920 1.180600
0.030940 1.290200
0.030960 1.291800
0.030980 1.303900
0.031000 1.357100
0.031020 1.353000
0.031040 1.212000
0.031060 1.390100
0.031080 1.335300
0.031100 1.377200
0.031120 1.378800
0.031140 1.156400
0.031160 1.358700
0.031180 1.305500
0.031200 1.041200
0.031220 1.237000
0.031240 1.215200
0.031260 1.304700
0.031280 1.168500
0.031300 1.132200
0.031320 0.967000
0.031340 1.267600
0.031360 1.424800
0.031380 1.689100
0.031400 2.153300
0.031420 2.668200
0.031440 2.885000
0.031460 2.901100
0.031480 2.885000
0.031500 2.591600
0.031520 2.132300
0.031540 1.793000
0.031560 1.505300
0.031580 1.349800
0.031600 1.287000
0.031620 1.199900
0.031640 1.274900
0.031660 1.320800
0.031680 1.450500
0.031700 1.522300
0.031720 1.308700
0.031740 1.637500
0.031760 1.689100
0.031780 1.540000
0.031800 1.565000
0.031820 1.495700
0.031840 1.256300
0.031860 1.386100
0.031880 1.133000
0.031900 1.288600
0.031920 1.141100
0.031940 1.275700
0.031960 1.088700
0.031980 1.310300
0.032000 1.353000
0.032020 1.343400
0.032040 1.404600
0.032060 1.395800
0.032080 1.407000
0.032100 1.367500
0.032120 1.426400
0.032140 1.365100
0.032160 1.359500
0.032180 1.354700
0.032200 1.324800
0.032220 1.037900
0.032240 1.311100
0.032260 1.315200
0.032280 1.159600
0.032300 1.289400
0.032320 1.314400
0.032340 1.411900
0.032360 1.651200
0.032380 2.113800
0.032400 2.640000
0.032420 2.885800
0.032440 2.898700
0.032460 2.882600
0.032480 2.624700
0.032500 2.127500
0.032520 1.797100
0.032540 1.535200
0.032560 1.394100
0.032580 1.282100
0.032600 1.237000
0.032620 1.249900
0.032640 1.316000
0.032660 1.397400
0.032680 1.496500
0.032700 1.577100
0.032720 1.607700
0.032740 1.594800
0.032760 1.529500
0.032780 1.560100
0.032800 1.520700
0.032820 1.411900
0.032840 1.240200
0.032860 1.319200
0.032880 1.200700
0.032900 1.199100
0.032920 1.242600
0.032940 1.279700
0.032960 1.316000
0.032980 1.303900
0.033000 1.221700
0.033020 1.390100
0.033040 1.418300
0.033060 1.397400
0.033080 1.390100
0.033100 1.375600
0.033120 1.258800
0.033140 1.245900
0.033160 1.301500
0.033180 1.126600
0.033200 1.267600
0.033220 1.279700
0.033240 1.339300
0.033260 1.269200
0.033280 1.219300
0.033300 1.288600
0.033320 1.308700
0.033340 1.419900
0.033360 1.701200
0.033380 2.212100
0.033400 2.739900
0.033420 2.893000
0.033440 2.893800
0.033460 2.891400
0.033480 2.744000
0.033500 2.348300
0.033520 1.934900
0.033540 1.571400
0.033560 1.428000
0.033580 1.400600
0.033600 1.156400
0.033620 1.353800
0.033640 1.396600
0.033660 1.469100
0.033680 1.402200
0.033700 1.552100
0.033720 1.555300
0.033740 1.603700
0.033760 1.591600
0.033780 1.568200
0.033800 1.505300
0.033820 1.401400
0.033840 1.385300
0.033860 1.292600
0.033880 1.231400
0.033900 1.264400
0.033920 1.278900
0.033940 1.287000
0.033960 1.284500
0.033980 1.309500
0.034000 1.321600
0.034020 1.324800
0.034040 1.353000
0.034060 1.373200
0.034080 1.325600
0.034100 1.305500
0.034120 1.174900
0.034140 1.356300
0.034160 1.332100
0.034180 1.289400
0.034200 1.277300
0.034220 1.314400
0.034240 1.302300
0.034260 1.237000
0.034280 1.119300
0.034300 1.178200
0.034320 1.295000
0.034340 1.268400
0.034360 1.340100
0.034380 1.455400
0.034400 1.747900
0.034420 2.215300
0.034440 2.723000
0.034460 2.885800
0.034480 2.901100
0.034500 2.875300
0.034520 2.521500
0.034540 2.127500
0.034560 1.673800
0.034580 1.530300
0.034600 1.353800
0.034620 1.083900
0.034640 1.304700
0.034660 1.257100
0.034680 1.376400
0.034700 1.444100
0.034720 1.491600
0.034740 1.534400
0.034760 1.623800
0.034780 1.638300
0.034800 1.652800
0.034820 1.534400
0.034840 1.482800
0.034860 1.347400
0.034880 1.389300
0.034900 1.332900
0.034920 1.299900
0.034940 1.270800
0.034960 1.092700
0.034980 1.183000
0.035000 1.192700
0.035020 1.320000
0.035040 1.353000
0.035060 1.010500
0.035080 1.282100
0.035100 1.282100
0.035120 1.259600
0.035140 1.397400
0.035160 1.382100
0.035180 1.320000
0.035200 1.328900
0.035220 1.142700
0.035240 1.339300
0.035260 1.287800
0.035280 1.311900
0.035300 1.319200
0.035320 1.266800
0.035340 1.306300
0.035360 1.374000
0.035380 1.477900
0.035400 2.031600
0.035420 2.456300
0.035440 2.785100
0.035460 2.839900
0.035480 2.688400
0.035500 2.367600
0.035520 1.985600
0.035540 1.664100
0.035560 1.425600
0.035580 1.250700
0.035600 1.091100
0.035620 0.967800
0.035640 1.139500
0.035660 1.256300
0.035680 1.370800
0.035700 1.372400
0.035720 1.579500
0.035740 1.605300
0.035760 1.648000
0.035780 1.627000
0.035800 1.579500
0.035820 1.535200
0.035840 1.432800
0.035860 1.363500
0.035880 1.223300
0.035900 1.311900
0.035920 1.200700
0.035940 1.243400
0.035960 1.241000
0.035980 1.311100
0.036000 1.250700
0.036020 1.367500
0.036040 1.299000
0.036060 1.356300
0.036080 1.307900
0.036100 1.411900
0.036120 1.403000
0.036140 1.363500
0.036160 1.370800
0.036180 1.340100
0.036200 1.282900
0.036220 1.318400
0.036240 1.270000
0.036260 1.314400
0.036280 1.302300
0.036300 1.341000
0.036320 1.490000
0.036340 1.785000
0.036360 2.187100
0.036380 2.700400
0.036400 2.870500
0.036420 2.885800
0.036440 2.711700
0.036460 2.304800
0.036480 1.995300
0.036500 1.686700
0.036520 1.502100
0.036540 1.377200
0.036560 1.273300
0.036580 1.307100
0.036600 1.305500
0.036620 1.404600
0.036640 1.345000
0.036660 1.511000
0.036680 1.563400
0.036700 1.569800
0.036720 1.478800
0.036740 1.555300
0.036760 1.486000
0.036780 1.424800
0.036800 1.400600
0.036820 1.340100
0.036840 1.231400
0.036860 1.253900
0.036880 1.239400
0.036900 1.224100
0.036920 1.283700
0.036940 1.237000
0.036960 1.315200
0.036980 1.311900
0.037000 1.176600
0.037020 1.325600
0.037040 1.293400
0.037060 1.373200
0.037080 1.183800
0.037100 1.381200
0.037120 1.221700
0.037140 1.350600
0.037160 1.325600
0.037180 1.150000
0.037200 1.263600
0.037220 1.210400
0.037240 1.287800
0.037260 1.313600
0.037280 1.320000
0.037300 1.231400
0.037320 1.322400
0.037340 1.414300
0.037360 1.624600
0.037380 1.981600
0.037400 2.471600
0.037420 2.848700
0.037440 2.887400
0.037460 2.859200
0.037480 2.627100
0.037500 2.252400
0.037520 1.852700
0.037540 1.631100
0.037560 1.356300
0.037580 1.406200
0.037600 1.396600
0.037620 1.327300
0.037640 1.411100
0.037660 1.420700
0.037680 1.349800
0.037700 1.533600
0.037720 1.453000
0.037740 1.585900
0.037760 1.567400
0.037780 1.566600
0.037800 1.472300
0.037820 1.370800
0.037840 1.373200
0.037860 1.354700
0.037880 1.321600
0.037900 1.116900
0.037920 1.212800
0.037940 1.291800
0.037960 1.281300
0.037980 1.228900
0.038000 1.278100
0.038020 1.270800
0.038040 1.353800
0.038060 1.360300
0.038080 1.310300
0.038100 1.394900
0.038120 1.360300
0.038140 1.349000
0.038160 1.212800
0.038180 1.321600
0.038200 1.189500
0.038220 1.320800
0.038240 1.324000
0.038260 1.263600
0.038280 1.154800
0.038300 1.299000
0.038320 1.318400
0.038340 1.269200
0.038360 1.349800
0.038380 1.242600
0.038400 1.297400
0.038420 1.508600
0.038440 1.777700
0.038460 2.177400
0.038480 2.610200
0.038500 2.827000
0.038520 2.836600
0.038540 2.621500
0.038560 2.279000
0.038580 1.907500
0.038600 1.697900
0.038620 1.373200
0.038640 1.325600
0.038660 1.299900
0.038680 1.333700
0.038700 1.339300
0.038720 1.403000
0.038740 1.399000
0.038760 1.535200
0.038780 1.614900
0.038800 1.635100
0.038820 1.609300
0.038840 1.604500
0.038860 1.567400
0.038880 1.442500
0.038900 1.372400
0.038920 1.197500
0.038940 1.349000
0.038960 1.275700
0.038980 1.282900
0.039000 1.281300
0.039020 1.257900
0.039040 1.327300
0.039060 1.193500
0.039080 1.331300
0.039100 1.385300
0.039120 1.308700
0.039140 1.410300
0.039160 1.300700
0.039180 1.384500
0.039200 1.265200
0.039220 1.356300
0.039240 1.345000
0.039260 1.336100
0.039280 1.331300
0.039300 1.213600
0.039320 1.316800
0.039340 1.147500
0.039360 1.218500
0.039380 1.306300
0.039400 1.299900
0.039420 1.370000
0.039440 1.477900
0.039460 1.836600
0.039480 2.288600
0.039500 2.673800
0.039520 2.843100
0.039540 2.833400
0.039560 2.569900
0.039580 2.266100
0.039600 1.872800
0.039620 1.681800
0.039640 1.510200
0.039660 1.385300
0.039680 1.334500
0.039700 1.292600
0.039720 1.307100
0.039740 1.372400
0.039760 1.494900
0.039780 1.533600
0.039800 1.575500
0.039820 1.581900
0.039840 1.590000
0.039860 1.580300
0.039880 1.514200
0.039900 1.448900
0.039920 1.370800
0.039940 1.340100
0.039960 1.272500
0.039980 1.304700
0.040000 1.172500
0.040020 1.273300
0.040040 1.311900
0.040060 1.324800
0.040080 1.282100
0.040100 1.310300
0.040120 1.289400
0.040140 1.398200
0.040160 1.407000
0.040180 1.367500
0.040200 1.395800
0.040220 1.345800
0.040240 1.346600
0.040260 1.292600
0.040280 1.232200
0.040300 1.303900
0.040320 1.253900
0.040340 1.238600
0.040360 1.274100
0.040380 1.146700
0.040400 1.300700
0.040420 1.299900
0.040440 1.206400
0.040460 1.175800
0.040480 1.341000
0.040500 1.331300
0.040520 1.757600
0.040540 2.196800
0.040560 2.629500
0.040580 2.862400
0.040600 2.901100
0.040620 2.752800
0.040640 2.453000
0.040660 2.013800
0.040680 1.781000
0.040700 1.605300
0.040720 1.442500
0.040740 1.455400
0.040760 1.432000
0.040780 1.410300
0.040800 1.461800
0.040820 1.479600
0.040840 1.345800
0.040860 1.531100
0.040880 1.581100
0.040900 1.581900
0.040920 1.534400
0.040940 1.472300
0.040960 1.330500
0.040980 1.269200
0.041000 1.316000
0.041020 1.303100
0.041040 1.210400
0.041060 1.220900
0.041080 1.124200
0.041100 1.218500
0.041120 1.259600
0.041140 1.271600
0.041160 1.306300
0.041180 1.338500
0.041200 1.356300
0.041220 1.246700
0.041240 1.261200
0.041260 1.327300
0.041280 1.350600
0.041300 1.176600
0.041320 1.291800
0.041340 1.217700
0.041360 1.263600
0.041380 1.245100
0.041400 1.178200
0.041420 1.191100
0.041440 1.129800
0.041460 1.197500
0.041480 1.256300
0.041500 1.288600
0.041520 1.303100
0.041540 1.158800
0.041560 1.334500
0.041580 1.373200
0.041600 1.747100
0.041620 2.194400
0.041640 2.545700
0.041660 2.744000
0.041680 2.764900
0.041700 2.548900
0.041720 2.272500
0.041740 1.943700
0.041760 1.697100
0.041780 1.275700
0.041800 1.309500
0.041820 1.278900
0.041840 1.107300
0.041860 1.195100
0.041880 1.382100
0.041900 1.456200
0.041920 1.429600
0.041940 1.632700
0.041960 1.664100
0.041980 1.644000
0.042000 1.549700
0.042020 1.506200
0.042040 1.479600
0.042060 1.351400
0.042080 1.283700
0.042100 1.275700
0.042120 1.269200
0.042140 1.251500
0.042160 1.008100
0.042180 1.216800
0.042200 1.276500
0.042220 1.283700
0.042240 1.317600
0.042260 1.286200
0.042280 1.160400
0.042300 1.367500
0.042320 1.375600
0.042340 1.341000
0.042360 1.336100
0.042380 1.309500
0.042400 1.333700
0.042420 1.319200
0.042440 1.306300
0.042460 1.310300
0.042480 1.219300
0.042500 1.316000
0.042520 1.188600
0.042540 1.307900
0.042560 1.291800
0.042580 1.425600
0.042600 1.660900
0.042620 2.030000
0.042640 2.467500
0.042660 2.731900
0.042680 2.822100
0.042700 2.668200
0.042720 2.393400
0.042740 2.079100
0.042760 1.781800
0.042780 1.548900
0.042800 1.463400
0.042820 1.363500
0.042840 1.312700
0.042860 1.121000
0.042880 1.327300
0.042900 1.337700
0.042920 1.509400
0.042940 1.508600
0.042960 1.601200
0.042980 1.620600
0.043000 1.569800
0.043020 1.437700
0.043040 1.483600
0.043060 1.330500
0.043080 1.336900
0.043100 1.266000
0.043120 1.151600
0.043140 1.218500
0.043160 1.250700
0.043180 1.237000
0.043200 1.176600
0.043220 1.107300
0.043240 1.306300
0.043260 1.316800
0.043280 1.327300
0.043300 1.320800
0.043320 1.357100
0.043340 1.334500
0.043360 1.307900
0.043380 1.191900
0.043400 1.328100
0.043420 1.341000
0.043440 1.259600
0.043460 1.332900
0.043480 1.102400
0.043500 1.277300
0.043520 1.314400
0.043540 1.307100
0.043560 1.311900
0.043580 1.304700
0.043600 1.334500
0.043620 1.515800
0.043640 1.800300
0.043660 2.228200
0.043680 2.647300
0.043700 2.836600
0.043720 2.820500
0.043740 2.640000
0.043760 2.305600
0.043780 1.971100
0.043800 1.605300
0.043820 1.536800
0.043840 1.264400
0.043860 1.278100
0.043880 1.368400
0.043900 1.348200
0.043920 1.315200
0.043940 1.422300
0.043960 1.533600
0.043980 1.577100
0.044000 1.588400
0.044020 1.563400
0.044040 1.432000
0.044060 1.507000
0.044080 1.353000
0.044100 1.288600
0.044120 1.282900
0.044140 1.266000
0.044160 1.235400
0.044180 1.240200
0.044200 1.219300
0.044220 1.090300
0.044240 1.287000
0.044260 1.266800
0.044280 1.306300
0.044300 1.316000
0.044320 1.343400
0.044340 1.348200
0.044360 1.303900
0.044380 1.075800
0.044400 1.314400
0.044420 1.301500
0.044440 1.249900
0.044460 1.228100
0.044480 1.317600
0.044500 1.320800
0.044520 1.330500
0.044540 1.299900
0.044560 1.164500
0.044580 1.276500
0.044600 1.321600
0.044620 1.316800
0.044640 1.303100
0.044660 1.345800
0.044680 1.435200
0.044700 1.569800
0.044720 1.978400
0.044740 2.398200
0.044760 2.716600
0.044780 2.848700
0.044800 2.668200
0.044820 2.441000
0.044840 2.152500
0.044860 1.819600
0.044880 1.638300
0.044900 1.459400
0.044920 1.357100
0.044940 1.342600
0.044960 1.344200
0.044980 1.378800
0.045000 1.336100
0.045020 1.485200
0.045040 1.540800
0.045060 1.542400
0.045080 1.565000
0.045100 1.562600
0.045120 1.221700
0.045140 1.517400
0.045160 1.443300
0.045180 1.323200
0.045200 1.311900
0.045220 1.312700
0.045240 1.244200
0.045260 1.287800
0.045280 1.268400
0.045300 1.218500
0.045320 1.208000
0.045340 1.183800
0.045360 1.353000
0.045380 1.318400
0.045400 1.374000
0.045420 1.239400
0.045440 1.347400
0.045460 1.021800
0.045480 1.388500
0.045500 1.233800
0.045520 1.266800
0.045540 1.306300
0.045560 1.312700
0.045580 1.306300
0.045600 1.326400
0.045620 1.344200
0.045640 1.230500
0.045660 1.349800
0.045680 1.318400
0.045700 1.377200
0.045720 1.506200
0.045740 1.635900
0.045760 2.044500
0.045780 2.420000
0.045800 2.652100
0.045820 2.702100
0.045840 2.543300
0.045860 2.230600
0.045880 1.912300
0.045900 1.527100
0.045920 1.446500
0.045940 1.147500
0.045960 1.212000
0.045980 1.207200
0.046000 1.236200
0.046020 1.129800
0.046040 1.375600
0.046060 1.514200
0.046080 1.590800
0.046100 1.625400
0.046120 1.627800
0.046140 1.504500
0.046160 1.533600
0.046180 1.453000
0.046200 1.397400
0.046220 1.345000
0.046240 1.283700
0.046260 1.249900
0.046280 1.245900
0.046300 1.246700
0.046320 1.288600
0.046340 1.150000
0.046360 1.335300
0.046380 1.334500
0.046400 1.382100
0.046420 1.375600
0.046440 1.364300
0.046460 1.413500
0.046480 1.418300
0.046500 1.361100
0.046520 1.388500
0.046540 1.299000
0.046560 1.354700
0.046580 1.345000
0.046600 1.305500
0.046620 1.256300
0.046640 1.339300
0.046660 1.253900
0.046680 1.327300
0.046700 1.310300
0.046720 1.419100
0.046740 1.445700
0.046760 1.902600
0.046780 2.332200
0.046800 2.686700
0.046820 2.826200
0.046840 2.753600
0.046860 2.511900
0.046880 2.208100
0.046900 1.882500
0.046920 1.659300
0.046940 1.457000
0.046960 1.278900
0.046980 1.227300
0.047000 1.325600
0.047020 1.318400
0.047040 1.411100
0.047060 1.443300
0.047080 1.507000
0.047100 1.574700
0.047120 1.552900
0.047140 1.571400
0.047160 1.551300
0.047180 1.507800
0.047200 1.428800
0.047220 1.381200
0.047240 1.338500
0.047260 1.325600
0.047280 1.295000
0.047300 1.234600
0.047320 1.306300
0.047340 1.221700
0.047360 1.262000
0.047380 1.280500
0.047400 1.317600
0.047420 1.332100
0.047440 1.369200
0.047460 1.375600
0.047480 1.394900
0.047500 1.262800
0.047520 1.379600
0.047540 1.384500
0.047560 1.395800
0.047580 1.353000
0.047600 1.322400
0.047620 1.310300
0.047640 1.303900
0.047660 1.323200
0.047680 1.316800
0.047700 1.330500
0.047720 1.119300
0.047740 1.343400
0.047760 1.410300
0.047780 1.565800
0.047800 1.901000
0.047820 2.297500
0.047840 2.637600
0.047860 2.790700
0.047880 2.735900
0.047900 2.485300
0.047920 2.139600
0.047940 1.814800
0.047960 1.608500
0.047980 1.314400
0.048000 1.337700
0.048020 1.207200
0.048040 1.005700
0.048060 1.307900
0.048080 1.297400
0.048100 1.322400
0.048120 1.533600
0.048140 1.569000
0.048160 1.589200
0.048180 1.585100
0.048200 1.565000
0.048220 1.497300
0.048240 1.437700
0.048260 1.399000
0.048280 1.188600
0.048300 1.303900
0.048320 1.301500
0.048340 1.282900
0.048360 1.318400
0.048380 1.205600
0.048400 1.334500
0.048420 1.350600
0.048440 1.332900
0.048460 1.369200
0.048480 1.404600
0.048500 1.432800
0.048520 1.463400
0.048540 1.370800
0.048560 1.370800
0.048580 1.338500
0.048600 1.353000
0.048620 1.080700
0.048640 1.337700
0.048660 1.354700
0.048680 1.218500
0.048700 1.147500
0.048720 1.211200
0.048740 1.364300
0.048760 1.447300
0.048780 1.594800
0.048800 1.911500
0.048820 2.295100
0.048840 2.559400
0.048860 2.673800
0.048880 2.577900
0.048900 2.362000
0.048920 2.006600
0.048940 1.514200
0.048960 1.480400
0.048980 1.376400
0.049000 1.288600
0.049020 1.272500
0.049040 1.106400
0.049060 1.262000
0.049080 1.119300
0.049100 1.461800
0.049120 1.515000
0.049140 1.597200
0.049160 1.611700
0.049180 1.598800
0.049200 1.565800
0.049220 1.149200
0.049240 1.303100
0.049260 1.112100
0.049280 1.179800
0.049300 1.208800
0.049320 1.096000
0.049340 1.298200
0.049360 1.297400
0.049380 1.318400
0.049400 1.257900
0.049420 1.167700
0.049440 1.247500
0.049460 1.403800
0.049480 1.413500
0.049500 1.370800
0.049520 1.228900
0.049540 1.332900
0.049560 1.405400
0.049580 1.380400
0.049600 1.325600
0.049620 1.357900
0.049640 1.338500
0.049660 1.322400
0.049680 1.350600
0.049700 1.159600
0.049720 1.325600
0.049740 1.297400
0.049760 1.358700
0.049780 1.536800
0.049800 1.758400
0.049820 2.134700
0.049840 2.502200
0.049860 2.740700
0.049880 2.787500
0.049900 2.635200
0.049920 2.326500
0.049940 2.011400
0.049960 1.699600
0.049980 1.376400
0.050000 1.420700
0.050020 1.358700
0.050040 1.316800
0.050060 1.307900
0.050080 1.413500
0.050100 1.460200
0.050120 1.482800
0.050140 1.511800
0.050160 1.534400
0.050180 1.573000
0.050200 1.409500
0.050220 1.502900
0.050240 1.402200
0.050260 1.399000
0.050280 1.353800
0.050300 1.339300
0.050320 1.112100
0.050340 1.262800
0.050360 1.282100
0.050380 1.304700
0.050400 1.283700
0.050420 1.353000
0.050440 1.354700
0.050460 1.363500
0.050480 1.328900
0.050500 1.407800
0.050520 1.410300
0.050540 1.245100
0.050560 1.378800
0.050580 1.364300
0.050600 1.379600
0.050620 1.300700
0.050640 1.200700
0.050660 1.351400
0.050680 1.376400
0.050700 1.365100
0.050720 1.353800
0.050740 1.120100
0.050760 1.336900
0.050780 1.218500
0.050800 1.403000
0.050820 1.478800
0.050840 1.692300
0.050860 1.984000
0.050880 2.357100
0.050900 2.633600
0.050920 2.740700
0.050940 2.616600
0.050960 2.374100
0.050980 2.071100
0.051000 1.662500
0.051020 1.585100
0.051040 1.450500
0.051060 1.355500
0.051080 1.287800
0.051100 1.019400
0.051120 1.370000
0.051140 1.424000
0.051160 1.501300
0.051180 1.548100
0.051200 1.417500
0.051220 1.607700
0.051240 1.601200
0.051260 1.540000
0.051280 1.502100
0.051300 1.432000
0.051320 1.403000
0.051340 1.354700
0.051360 1.078200
0.051380 1.321600
0.051400 1.296600
0.051420 1.308700
0.051440 1.310300
0.051460 1.326400
0.051480 1.177400
0.051500 1.399800
0.051520 1.264400
0.051540 1.409500
0.051560 1.258800
0.051580 1.425600
0.051600 1.367500
0.051620 1.327300
0.051640 1.393300
0.051660 1.355500
0.051680 1.307900
0.051700 1.238600
0.051720 1.365900
0.051740 1.320800
0.051760 1.346600
0.051780 1.269200
0.051800 1.361100
0.051820 1.048400
0.051840 1.380400
0.051860 1.622200
0.051880 1.866400
0.051900 2.283000
0.051920 2.565900
0.051940 2.694800
0.051960 2.586000
0.051980 2.363600
0.052000 2.055800
0.052020 1.781000
0.052040 1.524700
0.052060 1.355500
0.052080 1.325600
0.052100 1.192700
0.052120 1.269200
0.052140 1.320000
0.052160 1.439300
0.052180 1.502100
0.052200 1.488400
0.052220 1.524700
0.052240 1.582700
0.052260 1.592400
0.052280 1.548100
0.052300 1.462600
0.052320 1.414300
0.052340 1.340100
0.052360 1.330500
0.052380 1.237000
0.052400 1.211200
0.052420 1.224900
0.052440 1.234600
0.052460 1.283700
0.052480 1.323200
0.052500 1.349000
0.052520 1.295000
0.052540 1.356300
0.052560 1.274900
0.052580 1.360300
0.052600 1.421500
0.052620 1.285300
0.052640 1.369200
0.052660 1.386100
0.052680 1.309500
0.052700 1.356300
0.052720 1.354700
0.052740 1.050800
0.052760 1.267600
0.052780 1.366700
0.052800 1.350600
0.052820 1.340100
0.052840 1.361100
0.052860 1.314400
0.052880 1.602100
0.052900 1.783400
0.052920 2.288600
0.052940 2.623900
0.052960 2.789100
0.052980 2.789100
0.053000 2.582000
0.053020 2.250800
0.053040 1.926800
0.053060 1.695500
0.053080 1.530300
0.053100 1.320000
0.053120 1.393300
0.053140 1.321600
0.053160 1.390100
0.053180 1.424000
0.053200 1.453800
0.053220 1.513400
0.053240 1.538400
0.053260 1.476300
0.053280 1.589200
0.053300 1.503700
0.053320 1.519900
0.053340 1.461000
0.053360 1.401400
0.053380 0.999300
0.053400 1.339300
0.053420 1.281300
0.053440 1.076600
0.053460 1.286200
0.053480 1.307900
0.053500 1.328900
0.053520 1.344200
0.053540 1.374000
0.053560 1.350600
0.053580 1.276500
0.053600 1.374800
0.053620 1.402200
0.053640 1.391700
0.053660 1.416700
0.053680 1.424000
0.053700 1.374000
0.053720 1.394900
0.053740 1.365900
0.053760 1.173300
0.053780 1.329700
0.053800 1.370000
0.053820 1.356300
0.053840 1.339300
0.053860 1.349000
0.053880 1.291800
0.053900 1.332900
0.053920 1.359500
0.053940 1.440100
0.053960 1.589200
0.053980 1.868800
0.054000 2.262900
0.054020 2.599700
0.054040 2.707700
0.054060 2.741500
0.054080 2.559400
0.054100 2.239500
0.054120 1.909100
0.054140 1.639900
0.054160 1.405400
0.054180 1.392500
0.054200 1.346600
0.054220 1.201500
0.054240 1.360300
0.054260 1.370000
0.054280 1.229700
0.054300 1.519900
0.054320 1.613300
0.054340 1.607700
0.054360 1.624600
0.054380 1.473100
0.054400 1.544000
0.054420 1.477100
0.054440 1.437700
0.054460 1.319200
0.054480 1.260400
0.054500 1.324800
0.054520 1.183800
0.054540 1.287000
0.054560 1.295800
0.054580 1.283700
0.054600 1.337700
0.054620 1.339300
0.054640 1.353000
0.054660 1.425600
0.054680 1.380400
0.054700 1.324800
0.054720 1.340100
0.054740 1.361900
0.054760 1.251500
0.054780 1.406200
0.054800 1.375600
0.054820 1.407000
0.054840 1.390900
0.054860 1.324000
0.054880 1.326400
0.054900 1.339300
0.054920 1.353800
0.054940 1.347400
0.054960 1.447300
0.054980 1.610900
0.055000 1.867200
0.055020 2.237900
0.055040 2.513500
0.055060 2.601300
0.055080 2.627100
0.055100 2.347500
0.055120 2.113800
0.055140 1.822900
0.055160 1.567400
0.055180 1.410300
0.055200 1.308700
0.055220 1.162900
0.055240 1.257900
0.055260 1.242600
0.055280 1.365900
0.055300 1.427200
0.055320 1.556900
0.055340 1.634300
0.055360 1.652000
0.055380 1.656000
0.055400 1.596400
0.055420 1.444100
0.055440 1.446500
0.055460 1.348200
0.055480 1.351400
0.055500 1.173300
0.055520 1.079900
0.055540 1.063700
0.055560 1.249900
0.055580 1.302300
0.055600 1.328900
0.055620 1.351400
0.055640 1.315200
0.055660 1.276500
0.055680 1.374800
0.055700 1.419100
0.055720 1.404600
0.055740 1.428000
0.055760 1.366700
0.055780 1.394900
0.055800 1.382900
0.055820 1.308700
0.055840 1.348200
0.055860 1.347400
0.055880 1.347400
0.055900 1.366700
0.055920 1.245900
0.055940 1.370800
0.055960 1.261200
0.055980 1.577900
0.056000 1.875200
0.056020 2.275800
0.056040 2.606200
0.056060 2.810800
0.056080 2.700400
0.056100 2.568300
0.056120 2.254800
0.056140 1.943700
0.056160 1.702000
0.056180 1.512600
0.056200 1.366700
0.056220 1.343400
0.056240 1.365100
0.056260 1.301500
0.056280 1.431200
0.056300 1.477100
0.056320 1.520700
0.056340 1.594000
0.056360 1.598000
0.056380 1.579500
0.056400 1.579500
0.056420 1.546400
0.056440 1.500500
0.056460 1.438500
0.056480 1.379600
0.056500 1.334500
0.056520 1.320000
0.056540 1.275700
0.056560 1.277300
0.056580 1.310300
0.056600 1.309500
0.056620 1.187800
0.056640 1.160400
0.056660 1.400600
0.056680 1.337700
0.056700 1.282100
0.056720 1.411900
0.056740 1.336100
0.056760 1.408600
0.056780 1.340100
0.056800 1.390900
0.056820 1.322400
0.056840 1.359500
0.056860 1.370800
0.056880 1.370800
0.056900 1.370800
0.056920 1.366700
0.056940 1.022600
0.056960 1.374800
0.056980 1.411100
0.057000 1.523900
0.057020 1.756800
0.057040 2.118600
0.057060 2.485300
0.057080 2.730300
0.057100 2.773000
0.057120 2.611800
0.057140 2.353100
0.057160 2.028400
0.057180 1.748700
0.057200 1.520700
0.057220 1.390100
0.057240 1.228100
0.057260 1.333700
0.057280 1.355500
0.057300 1.407000
0.057320 1.274100
0.057340 1.397400
0.057360 1.575500
0.057380 1.546400
0.057400 1.594000
0.057420 1.596400
0.057440 1.580300
0.057460 1.507800
0.057480 1.481200
0.057500 1.321600
0.057520 1.124200
0.057540 1.344200
0.057560 1.313600
0.057580 1.154800
0.057600 1.250700
0.057620 1.237000
0.057640 1.253100
0.057660 1.326400
0.057680 1.367500
0.057700 1.411100
0.057720 1.371600
0.057740 1.400600
0.057760 1.420700
0.057780 1.409500
0.057800 1.411100
0.057820 1.434400
0.057840 1.411900
0.057860 1.391700
0.057880 1.416700
0.057900 1.386100
0.057920 1.334500
0.057940 1.402200
0.057960 1.371600
0.057980 1.430400
0.058000 1.589200
0.058020 1.839000
0.058040 2.171000
0.058060 2.466700
0.058080 2.583600
0.058100 2.574700
0.058120 2.375700
0.058140 2.111400
0.058160 1.810000
0.058180 1.605300
0.058200 1.399800
0.058220 1.171700
0.058240 1.264400
0.058260 1.023400
0.058280 1.278100
0.058300 1.312700
0.058320 1.498100
0.058340 1.584300
0.058360 1.527100
0.058380 1.697100
0.058400 1.669700
0.058420 1.437700
0.058440 1.574700
0.058460 1.338500
0.058480 1.411100
0.058500 1.236200
0.058520 1.197500
0.058540 1.260400
0.058560 1.286200
0.058580 1.305500
0.058600 1.129000
0.058620 1.361100
0.058640 1.334500
0.058660 1.394900
0.058680 1.133000
0.058700 1.360300
0.058720 1.432000
0.058740 1.420700
0.058760 1.324000
0.058780 1.366700
0.058800 1.348200
0.058820 1.285300
0.058840 1.380400
0.058860 1.287800
0.058880 1.243400
0.058900 1.390900
0.058920 1.516600
0.058940 1.748700
0.058960 2.081500
0.058980 2.458700
0.059000 2.753600
0.059020 2.823700
0.059040 2.717400
0.059060 2.388600
0.059080 2.133100
0.059100 1.826100
0.059120 1.627000
0.059140 1.529500
0.059160 1.458600
0.059180 1.391700
0.059200 1.420700
0.059220 1.249900
0.059240 1.487600
0.059260 1.514200
0.059280 1.510200
0.059300 1.577100
0.059320 1.574700
0.059340 1.529500
0.059360 1.516600
0.059380 1.461000
0.059400 1.429600
0.059420 1.407000
0.059440 1.340100
0.059460 1.352200
0.059480 1.302300
0.059500 1.319200
0.059520 1.309500
0.059540 1.250700
0.059560 1.275700
0.059580 1.383700
0.059600 1.391700
0.059620 1.364300
0.059640 1.424000
0.059660 1.215200
0.059680 1.417500
0.059700 1.388500
0.059720 1.334500
0.059740 1.352200
0.059760 1.378000
0.059780 1.266800
0.059800 1.295800
0.059820 1.322400
0.059840 1.292600
0.059860 1.349800
0.059880 1.389300
0.059900 1.458600
0.059920 1.732600
0.059940 2.109700
0.059960 2.515100
0.059980 2.795500
0.060000 2.867300
0.060020 2.792300
0.060040 2.557000
0.060060 2.237100
0.060080 1.955000
0.060100 1.756800
0.060120 1.598000
0.060140 1.576300
0.060160 1.541600
0.060180 1.506200
0.060200 1.515000
0.060220 1.531100
0.060240 1.556100
0.060260 1.561000
0.060280 1.594000
0.060300 1.442500
0.060320 1.598000
0.060340 1.443300
0.060360 1.544000
0.060380 1.434400
0.060400 1.218500
0.060420 1.390100
0.060440 1.372400
0.060460 1.353000
0.060480 1.356300
0.060500 1.135500
0.060520 1.346600
0.060540 1.286200
0.060560 1.292600
0.060580 1.407000
0.060600 1.394900
0.060620 1.374000
0.060640 1.378000
0.060660 1.270000
0.060680 1.389300
0.060700 1.398200
0.060720 1.343400
0.060740 1.371600
0.060760 1.378800
0.060780 1.379600
0.060800 1.373200
0.060820 1.378000
0.060840 1.404600
0.060860 1.245900
0.060880 1.394900
0.060900 1.488400
0.060920 1.623000
0.060940 1.903400
0.060960 2.358800
0.060980 2.724600
0.061000 2.868900
0.061020 2.850300
0.061040 2.617400
0.061060 2.259600
0.061080 1.942900
0.061100 1.681000
0.061120 1.435200
0.061140 1.422300
0.061160 1.378800
0.061180 1.295800
0.061200 1.401400
0.061220 1.433600
0.061240 1.552100
0.061260 1.597200
0.061280 1.697900
0.061300 1.694700
0.061320 1.692300
0.061340 1.655200
0.061360 1.539200
0.061380 1.498900
0.061400 1.419100
0.061420 1.266800
0.061440 1.286200
0.061460 1.307900
0.061480 1.139500
0.061500 1.172500
0.061520 1.262800
0.061540 1.345000
0.061560 1.343400
0.061580 1.416700
0.061600 1.308700
0.061620 1.358700
0.061640 1.378000
0.061660 1.228900
0.061680 1.401400
0.061700 1.424800
0.061720 1.231400
0.061740 1.360300
0.061760 1.349000
0.061780 1.357900
0.061800 1.082300
0.061820 1.368400
0.061840 1.369200
0.061860 1.212000
0.061880 1.321600
0.061900 1.518200
0.061920 1.866400
0.061940 2.399900
0.061960 2.852700
0.061980 2.888200
0.062000 2.887400
0.062020 2.908400
0.062040 2.861600
0.062060 2.491700
0.062080 2.089600
0.062100 1.741500
0.062120 1.590800
0.062140 1.507000
0.062160 1.473900
0.062180 1.437700
0.062200 1.457800
0.062220 1.480400
0.062240 1.308700
0.062260 1.571400
0.062280 1.555300
0.062300 1.601200
0.062320 1.579500
0.062340 1.568200
0.062360 1.508600
0.062380 1.453000
0.062400 1.377200
0.062420 1.272500
0.062440 1.071800
0.062460 1.347400
0.062480 1.308700
0.062500 1.317600
0.062520 1.274100
0.062540 1.313600
0.062560 1.179000
0.062580 1.355500
0.062600 1.349000
0.062620 1.263600
0.062640 1.345800
0.062660 1.285300
0.062680 1.215200
0.062700 1.361100
0.062720 1.341800
0.062740 1.277300
0.062760 1.293400
0.062780 1.303900
0.062800 1.262000
0.062820 1.331300
0.062840 1.213600
0.062860 1.332100
0.062880 1.202300
0.062900 1.265200
0.062920 1.331300
0.062940 1.346600
0.062960 1.639900
0.062980 2.059800
0.063000 2.627100
0.063020 2.903500
0.063040 2.905100
0.063060 2.891400
0.063080 2.901900
0.063100 2.747200
0.063120 2.302300
0.063140 1.880900
0.063160 1.627800
0.063180 1.486000
0.063200 1.339300
0.063220 1.331300
0.063240 1.369200
0.063260 1.413500
0.063280 1.468300
0.063300 1.476300
0.063320 1.544800
0.063340 1.555300
0.063360 1.602100
0.063380 1.557700
0.063400 1.521500
0.063420 1.179000
0.063440 1.312700
0.063460 1.348200
0.063480 1.216000
0.063500 1.300700
0.063520 1.133800
0.063540 1.188600
0.063560 1.112100
0.063580 1.014600
0.063600 1.326400
0.063620 1.380400
0.063640 1.127400
0.063660 1.416700
0.063680 1.378000
0.063700 1.411900
0.063720 1.399000
0.063740 1.256300
0.063760 1.350600
0.063780 1.296600
0.063800 1.295800
0.063820 1.173300
0.063840 1.252300
0.063860 1.289400
0.063880 1.311900
0.063900 1.100800
0.063920 1.212000
0.063940 1.183800
0.063960 1.335300
0.063980 1.338500
0.064000 1.324800
0.064020 1.338500
0.064040 1.214400
0.064060 1.230500
0.064080 1.658500
0.064100 2.107300
0.064120 2.611000
0.064140 2.891400
0.064160 2.892200
0.064180 2.881800
0.064200 2.758500
0.064220 2.307200
0.064240 1.873600
0.064260 1.586700
0.064280 1.295000
0.064300 1.250700
0.064320 1.195900
0.064340 1.252300
0.064360 1.230500
0.064380 1.429600
0.064400 1.536800
0.064420 1.623000
0.064440 1.673800
0.064460 1.631100
0.064480 1.661700
0.064500 1.622200
0.064520 1.535200
0.064540 1.436000
0.064560 1.262800
0.064580 1.093600
0.064600 1.192700
0.064620 1.220900
0.064640 1.252300
0.064660 1.220100
0.064680 1.290200
0.064700 1.351400
0.064720 1.362700
0.064740 1.388500
0.064760 1.340100
0.064780 1.347400
0.064800 1.424800
0.064820 1.392500
0.064840 1.388500
0.064860 1.356300
0.064880 1.210400
0.064900 1.217700
0.064920 1.044400
0.064940 1.266800
0.064960 1.198300
0.064980 1.042800
0.065000 1.077400
0.065020 1.292600
0.065040 1.282100
0.065060 1.224100
0.065080 1.312700
0.065100 1.326400
0.065120 1.320800
0.065140 1.361100
0.065160 1.562600
0.065180 1.872000
0.065200 2.515900
0.065220 2.886600
0.065240 2.890600
0.065260 2.887400
0.065280 2.901100
0.065300 2.793900
0.065320 2.318500
0.065340 1.888100
0.065360 1.634300
0.065380 1.405400
0.065400 1.351400
0.065420 1.382100
0.065440 1.402200
0.065460 1.440100
0.065480 1.457800
0.065500 1.461800
0.065520 1.498900
0.065540 1.597200
0.065560 1.605300
0.065580 1.565800
0.065600 1.523900
0.065620 1.453000
0.065640 1.385300
0.065660 1.324000
0.065680 1.244200
0.065700 1.295800
0.065720 1.270000
0.065740 1.204800
0.065760 1.185400
0.065780 1.291800
0.065800 1.315200
0.065820 1.161200
0.065840 1.357100
0.065860 1.278900
0.065880 1.341000
0.065900 1.289400
0.065920 1.382900
0.065940 1.341800
0.065960 1.342600
0.065980 1.343400
0.066000 1.320800
0.066020 1.263600
0.066040 1.262000
0.066060 1.284500
0.066080 1.139500
0.066100 1.301500
0.066120 1.211200
0.066140 1.295800
0.066160 1.306300
0.066180 1.258800
0.066200 1.278900
0.066220 1.333700
0.066240 1.278100
0.066260 1.121800
0.066280 1.299900
0.066300 1.420700
0.066320 1.564200
0.066340 2.166200
0.066360 2.714900
0.066380 2.896300
0.066400 2.896300
0.066420 2.887400
0.066440 2.891400
0.066460 2.565900
0.066480 2.084000
0.066500 1.747100
0.066520 1.528700
0.066540 1.411900
0.066560 1.364300
0.066580 1.363500
0.066600 1.378800
0.066620 1.469100
0.066640 1.534400
0.066660 1.578700
0.066680 1.598800
0.066700 1.627800
0.066720 1.581900
0.066740 1.578700
0.066760 1.511800
0.066780 1.164500
0.066800 1.317600
0.066820 1.278900
0.066840 1.218500
0.066860 1.212800
0.066880 1.253900
0.066900 1.237800
0.066920 1.303900
0.066940 1.321600
0.066960 1.336900
0.066980 1.358700
0.067000 1.045200
0.067020 1.356300
0.067040 1.311900
0.067060 1.323200
0.067080 1.175800
0.067100 1.344200
0.067120 1.343400
0.067140 1.353800
0.067160 1.332900
0.067180 1.303100
0.067200 1.291000
0.067220 1.316000
0.067240 1.105600
0.067260 1.277300
0.067280 1.291000
0.067300 1.272500
0.067320 1.327300
0.067340 1.249900
0.067360 1.321600
0.067380 1.341000
0.067400 1.353000
0.067420 1.407800
0.067440 1.608500
0.067460 2.056600
0.067480 2.597300
0.067500 2.886600
0.067520 2.893800
0.067540 2.858400
0.067560 2.572300
0.067580 2.163700
0.067600 1.798700
0.067620 1.523100
0.067640 1.382100
0.067660 1.005700
0.067680 1.151600
0.067700 1.205600
0.067720 1.151600
0.067740 1.423200
0.067760 1.524700
0.067780 1.540000
0.067800 1.653600
0.067820 1.665700
0.067840 1.648800
0.067860 1.573000
0.067880 1.502100
0.067900 1.247500
0.067920 1.301500
0.067940 1.291000
0.067960 1.139500
0.067980 1.218500
0.068000 1.215200
0.068020 1.245100
0.068040 0.965400
0.068060 1.245900
0.068080 1.246700
0.068100 1.374800
0.068120 1.328900
0.068140 1.342600
0.068160 1.382900
0.068180 1.347400
0.068200 1.348200
0.068220 1.306300
0.068240 1.231400
0.068260 1.246700
0.068280 1.082300
0.068300 1.142700
0.068320 1.259600
0.068340 1.197500
0.068360 1.237000
0.068380 1.174900
0.068400 1.287800
0.068420 1.270000
0.068440 1.280500
0.068460 1.315200
0.068480 1.336100
0.068500 1.444100
0.068520 1.706000
0.068540 2.169400
0.068560 2.681100
0.068580 2.876100
0.068600 2.880100
0.068620 2.885800
0.068640 2.828600
0.068660 2.411100
0.068680 2.001000
0.068700 1.685100
0.068720 1.516600
0.068740 1.417500
0.068760 1.357900
0.068780 1.371600
0.068800 1.358700
0.068820 1.440900
0.068840 1.525500
0.068860 1.397400
0.068880 1.600400
0.068900 1.606100
0.068920 1.491600
0.068940 1.544800
0.068960 1.412700
0.068980 1.324000
0.069000 1.335300
0.069020 1.278900
0.069040 1.262800
0.069060 1.189500
0.069080 1.150800
0.069100 1.205600
0.069120 1.263600
0.069140 1.301500
0.069160 1.246700
0.069180 1.329700
0.069200 1.265200
0.069220 1.208800
0.069240 1.359500
0.069260 1.344200
0.069280 1.356300
0.069300 1.262000
0.069320 1.291800
0.069340 1.194300
0.069360 1.267600
0.069380 1.293400
0.069400 1.096000
0.069420 1.278100
0.069440 1.192700
0.069460 1.108100
0.069480 1.121000
0.069500 1.334500
0.069520 1.352200
0.069540 1.295000
0.069560 1.291800
0.069580 1.414300
0.069600 1.593200
0.069620 1.945300
0.069640 2.457900
0.069660 2.844700
0.069680 2.889000
0.069700 2.887400
0.069720 2.845500
0.069740 2.427300
0.069760 2.002600
0.069780 1.503700
0.069800 1.510200
0.069820 1.373200
0.069840 1.256300
0.069860 1.350600
0.069880 1.365900
0.069900 1.427200
0.069920 1.461000
0.069940 1.552900
0.069960 1.595600
0.069980 1.598000
0.070000 1.599600
0.070020 1.573800
0.070040 1.531900
0.070060 1.475500
0.070080 1.378800
0.070100 1.233800
0.070120 1.270000
0.070140 1.174100
0.070160 1.210400
0.070180 1.108100
0.070200 1.239400
0.070220 1.304700
0.070240 1.311100
0.070260 1.223300
0.070280 1.305500
0.070300 1.373200
0.070320 1.384500
0.070340 1.328900
0.070360 1.367500
0.070380 1.353000
0.070400 1.360300
0.070420 1.256300
0.070440 1.151600
0.070460 1.282900
0.070480 1.218500
0.070500 1.331300
0.070520 1.311100
0.070540 1.338500
0.070560 1.225700
0.070580 1.357100
0.070600 1.391700
0.070620 1.565000
0.070640 1.795500
0.070660 2.314400
0.070680 2.766500
0.070700 2.892200
0.070720 2.883400
0.070740 2.752800
0.070760 2.368400
0.070780 1.966300
0.070800 1.521500
0.070820 1.489200
0.070840 1.274900
0.070860 1.308700
0.070880 1.196700
0.070900 1.159600
0.070920 1.379600
0.070940 1.482800
0.070960 1.562600
0.070980 1.503700
0.071000 1.660100
0.071020 1.646400
0.071040 1.596400
0.071060 1.501300
0.071080 1.388500
0.071100 1.379600
0.071120 1.305500
0.071140 1.095200
0.071160 1.150000
0.071180 1.004900
0.071200 1.250700
0.071220 1.217700
0.071240 1.295000
0.071260 1.312700
0.071280 1.343400
0.071300 1.368400
0.071320 1.320800
0.071340 1.361900
0.071360 1.403800
0.071380 1.391700
0.071400 1.316800
0.071420 1.343400
0.071440 1.329700
0.071460 1.310300
0.071480 1.318400
0.071500 1.258800
0.071520 1.005700
0.071540 1.354700
0.071560 1.316800
0.071580 1.366700
0.071600 1.343400
0.071620 1.345800
0.071640 1.476300
0.071660 1.969500
0.071680 2.516700
0.071700 2.865600
0.071720 2.879300
0.071740 2.893800
0.071760 2.893000
0.071780 2.698800
0.071800 2.239500
0.071820 1.867200
0.071840 1.372400
0.071860 1.457800
0.071880 1.412700
0.071900 1.275700
0.071920 1.366700
0.071940 1.295000
0.071960 1.490800
0.071980 1.525500
0.072000 1.535200
0.072020 1.599600
0.072040 1.610100
0.072060 1.553700
0.072080 1.498100
0.072100 1.413500
0.072120 1.335300
0.072140 1.315200
0.072160 1.117700
0.072180 1.139500
0.072200 1.222500
0.072220 1.277300
0.072240 1.161200
0.072260 1.319200
0.072280 1.311900
0.072300 1.353000
0.072320 1.352200
0.072340 1.379600
0.072360 1.362700
0.072380 1.372400
0.072400 1.345000
0.072420 1.344200
0.072440 1.332900
0.072460 1.091100
0.072480 1.282100
0.072500 1.253900
0.072520 1.274100
0.072540 1.286200
0.072560 1.281300
0.072580 1.301500
0.072600 1.141100
0.072620 1.161200
0.072640 0.985600
0.072660 1.431200
0.072680 1.647200
0.072700 2.031600
0.072720 2.575500
0.072740 2.887400
0.072760 2.885800
0.072780 2.902700
0.072800 2.829400
0.072820 2.537700
0.072840 2.090400
0.072860 1.765600
0.072880 1.477900
0.072900 1.469100
0.072920 1.332900
0.072940 1.395800
0.072960 1.391700
0.072980 1.191900
0.073000 1.498100
0.073020 1.548900
0.073040 1.608500
0.073060 1.598800
0.073080 1.588400
0.073100 1.534400
0.073120 1.519900
0.073140 1.382100
0.073160 1.370000
0.073180 1.340100
0.073200 1.311900
0.073220 1.269200
0.073240 1.209600
0.073260 1.301500
0.073280 1.290200
0.073300 1.307100
0.073320 1.370000
0.073340 1.329700
0.073360 1.415100
0.073380 1.366700
0.073400 1.370000
0.073420 1.411100
0.073440 1.420700
0.073460 1.278100
0.073480 1.358700
0.073500 1.349800
0.073520 1.168500
0.073540 1.295800
0.073560 1.347400
0.073580 1.316800
0.073600 1.332900
0.073620 1.361900
0.073640 1.279700
0.073660 1.349000
0.073680 1.382100
0.073700 1.482000
0.073720 1.739000
0.073740 2.106500
0.073760 2.590800
0.073780 2.855200
0.073800 2.892200
0.073820 2.810800
0.073840 2.462700
0.073860 2.075100
0.073880 1.773700
0.073900 1.550500
0.073920 1.365900
0.073940 1.314400
0.073960 1.319200
0.073980 1.357100
0.074000 1.343400
0.074020 1.527900
0.074040 1.451400
0.074060 1.514200
0.074080 1.679400
0.074100 1.679400
0.074120 1.563400
0.074140 1.443300
0.074160 1.474700
0.074180 1.393300
0.074200 1.349000
0.074220 1.120100
0.074240 1.263600
0.074260 1.300700
0.074280 1.092700
0.074300 1.347400
0.074320 1.318400
0.074340 1.333700
0.074360 1.424000
0.074380 1.428000
0.074400 1.428000
0.074420 1.446500
0.074440 1.407000
0.074460 1.411100
0.074480 1.237800
0.074500 1.372400
0.074520 1.288600
0.074540 1.276500
0.074560 1.261200
0.074580 1.303900
0.074600 1.307100
0.074620 1.318400
0.074640 1.358700
0.074660 1.352200
0.074680 1.334500
0.074700 1.568200
0.074720 1.900200
0.074740 2.395800
0.074760 2.859200
0.074780 2.891400
0.074800 2.872900
0.074820 2.885800
0.074840 2.602100
0.074860 2.187100
0.074880 1.844600
0.074900 1.624600
0.074920 1.517400
0.074940 1.497300
0.074960 1.466700
0.074980 1.484400
0.075000 1.490000
0.075020 1.462600
0.075040 1.572200
0.075060 1.419900
0.075080 1.561800
0.075100 1.610900
0.075120 1.557700
0.075140 1.469900
0.075160 1.279700
0.075180 1.428000
0.075200 1.271600
0.075220 1.257900
0.075240 1.337700
0.075260 1.286200
0.075280 1.315200
0.075300 1.146700
0.075320 1.317600
0.075340 1.369200
0.075360 1.383700
0.075380 1.378800
0.075400 1.424000
0.075420 1.344200
0.075440 1.363500
0.075460 1.217700
0.075480 1.268400
0.075500 1.359500
0.075520 1.328900
0.075540 1.306300
0.075560 1.342600
0.075580 1.148400
0.075600 1.297400
0.075620 1.311100
0.075640 1.348200
0.075660 1.327300
0.075680 1.347400
0.075700 1.307900
0.075720 1.350600
0.075740 1.391700
0.075760 1.508600
0.075780 1.754400
0.075800 2.273300
0.075820 2.794700
0.075840 2.903500
0.075860 2.897900
0.075880 2.891400
0.075900 2.773800
0.075920 2.341000
0.075940 1.934900
0.075960 1.685900
0.075980 1.476300
0.076000 1.457800
0.076020 1.457800
0.076040 1.440100
0.076060 1.473100
0.076080 1.430400
0.076100 1.514200
0.076120 1.482000
0.076140 1.594000
0.076160 1.548100
0.076180 1.391700
0.076200 1.507800
0.076220 1.421500
0.076240 1.418300
0.076260 1.363500
0.076280 1.307900
0.076300 1.312700
0.076320 1.295000
0.076340 1.236200
0.076360 1.093600
0.076380 1.252300
0.076400 1.320000
0.076420 1.352200
0.076440 1.407800
0.076460 1.262000
0.076480 1.440100
0.076500 1.217700
0.076520 1.353800
0.076540 1.398200
0.076560 1.378800
0.076580 1.245100
0.076600 1.349000
0.076620 1.345000
0.076640 1.236200
0.076660 1.336900
0.076680 1.341800
0.076700 1.324800
0.076720 1.304700
0.076740 1.317600
0.076760 1.365900
0.076780 1.331300
0.076800 1.361900
0.076820 1.273300
0.076840 1.366700
0.076860 1.423200
0.076880 1.389300
0.076900 1.811600
0.076920 2.267700
0.076940 2.756000
0.076960 2.908400
0.076980 2.905900
0.077000 2.803600
0.077020 2.490900
0.077040 2.055800
0.077060 1.663300
0.077080 1.523100
0.077100 1.413500
0.077120 1.313600
0.077140 1.340100
0.077160 1.382100
0.077180 1.461800
0.077200 1.545600
0.077220 1.602100
0.077240 1.652800
0.077260 1.682600
0.077280 1.671400
0.077300 1.572200
0.077320 1.556100
0.077340 1.459400
0.077360 1.401400
0.077380 1.336900
0.077400 1.320800
0.077420 1.019400
0.077440 1.178200
0.077460 1.319200
0.077480 1.170900
0.077500 1.379600
0.077520 1.426400
0.077540 1.270000
0.077560 1.413500
0.077580 1.444100
0.077600 1.424000
0.077620 1.401400
0.077640 1.349800
0.077660 1.208000
0.077680 1.358700
0.077700 1.304700
0.077720 1.355500
0.077740 1.287800
0.077760 1.340100
0.077780 1.337700
0.077800 1.331300
0.077820 1.353800
0.077840 1.381200
0.077860 1.382900
0.077880 1.387700
0.077900 1.088700
0.077920 1.424000
0.077940 1.738200
0.077960 2.104900
0.077980 2.680300
0.078000 2.893000
0.078020 3.048600
0.078040 2.888200
0.078060 2.617400
0.078080 2.206400
0.078100 1.821200
0.078120 1.288600
0.078140 1.382900
0.078160 1.461800
0.078180 1.402200
0.078200 1.451400
0.078220 1.457800
0.078240 1.309500
0.078260 1.374000
0.078280 1.490000
0.078300 1.523900
0.078320 1.295000
0.078340 1.579500
0.078360 1.500500
0.078380 1.486800
0.078400 1.412700
0.078420 1.319200
0.078440 1.272500
0.078460 1.231400
0.078480 1.304700
0.078500 1.345000
0.078520 1.208800
0.078540 1.334500
0.078560 1.369200
0.078580 1.402200
0.078600 1.228900
0.078620 1.404600
0.078640 1.414300
0.078660 1.411100
0.078680 1.373200
0.078700 1.324000
0.078720 1.309500
0.078740 1.352200
0.078760 1.242600
0.078780 1.254700
0.078800 1.316000
0.078820 1.321600
0.078840 1.312700
0.078860 1.121000
0.078880 1.277300
0.078900 1.259600
0.078920 1.306300
0.078940 1.260400
0.078960 1.381200
0.078980 1.369200
0.079000 1.378800
0.079020 1.489200
0.079040 1.568200
0.079060 1.868800
0.079080 2.414400
0.079100 2.861600
0.079120 2.910000
0.079140 2.905100
0.079160 2.896300
0.079180 2.600500
0.079200 2.153300
0.079220 1.807500
0.079240 1.598800
0.079260 1.501300
0.079280 1.377200
0.079300 1.457000
0.079320 1.494100
0.079340 1.257100
0.079360 1.469100
0.079380 1.542400
0.079400 1.582700
0.079420 1.601200
0.079440 1.569800
0.079460 1.493300
0.079480 1.490800
0.079500 1.454600
0.079520 1.368400
0.079540 1.322400
0.079560 1.295800
0.079580 1.167700
0.079600 1.292600
0.079620 1.183000
0.079640 1.222500
0.079660 1.295000
0.079680 1.266000
0.079700 1.283700
0.079720 1.327300
0.079740 1.382900
0.079760 1.353800
0.079780 1.431200
0.079800 1.303100
0.079820 1.355500
0.079840 1.319200
0.079860 1.352200
0.079880 1.097600
0.079900 1.302300
0.079920 1.336100
0.079940 1.337700
0.079960 1.321600
0.079980 1.346600
0.080000 1.330500
0.080020 1.142700
0.080040 1.163700
0.080060 1.190300
0.080080 1.245900
0.080100 1.141900
0.080120 1.235400
0.080140 1.277300
0.080160 1.444100
0.080180 1.648800
0.080200 2.153300
0.080220 2.630300
0.080240 2.868100
0.080260 2.892200
0.080280 2.831800
0.080300 2.491700
0.080320 2.082300
0.080340 1.764000
0.080360 1.558500
0.080380 1.408600
0.080400 1.375600
0.080420 1.213600
0.080440 1.403800
0.080460 1.183000
0.080480 1.465100
0.080500 1.455400
0.080520 1.612500
0.080540 1.619800
0.080560 1.623800
0.080580 1.573800
0.080600 1.366700
0.080620 1.488400
0.080640 1.403800
0.080660 1.025100
0.080680 1.313600
0.080700 1.286200
0.080720 1.254700
0.080740 1.147500
0.080760 1.153200
0.080780 1.355500
0.080800 1.233000
0.080820 1.291000
0.080840 1.410300
0.080860 1.228100
0.080880 1.385300
0.080900 1.403000
0.080920 1.378800
0.080940 1.295000
0.080960 1.333700
0.080980 1.341800
0.081000 1.250700
0.081020 1.269200
0.081040 1.291000
0.081060 1.280500
0.081080 1.324000
0.081100 1.333700
0.081120 1.290200
0.081140 1.353800
0.081160 1.223300
0.081180 1.376400
0.081200 1.357900
0.081220 1.488400
0.081240 1.723700
0.081260 2.113800
0.081280 2.607800
0.081300 2.893000
0.081320 2.897100
0.081340 2.818100
0.081360 2.554600
0.081380 2.166200
0.081400 1.746300
0.081420 1.493300
0.081440 1.489200
0.081460 1.440900
0.081480 1.417500
0.081500 1.407800
0.081520 1.460200
0.081540 1.321600
0.081560 1.513400
0.081580 1.542400
0.081600 1.502900
0.081620 1.588400
0.081640 1.459400
0.081660 1.320800
0.081680 1.224900
0.081700 1.295000
0.081720 1.308700
0.081740 1.294200
0.081760 1.175800
0.081780 1.260400
0.081800 1.287800
0.081820 1.278900
0.081840 1.322400
0.081860 1.333700
0.081880 1.365100
0.081900 1.349800
0.081920 1.357100
0.081940 1.318400
0.081960 1.400600
0.081980 1.262000
0.082000 1.363500
0.082020 1.331300
0.082040 1.310300
0.082060 1.302300
0.082080 1.314400
0.082100 1.319200
0.082120 1.249900
0.082140 1.288600
0.082160 1.194300
0.082180 1.295800
0.082200 1.281300
0.082220 1.324800
0.082240 1.339300
0.082260 1.186200
0.082280 1.354700
0.082300 1.287800
0.082320 1.453800
0.082340 1.790600
0.082360 2.294300
0.082380 2.734300
0.082400 2.881000
0.082420 2.904300
0.082440 2.796300
0.082460 2.564200
0.082480 2.088800
0.082500 1.786600
0.082520 1.577900
0.082540 1.501300
0.082560 1.269200
0.082580 1.386900
0.082600 1.464200
0.082620 1.429600
0.082640 1.510200
0.082660 1.527900
0.082680 1.551300
0.082700 1.547300
0.082720 1.587500
0.082740 1.556900
0.082760 1.496500
0.082780 1.386100
0.082800 1.348200
0.082820 1.339300
0.082840 1.106400
0.082860 1.266000
0.082880 1.233000
0.082900 1.224100
0.082920 1.221700
0.082940 1.296600
0.082960 1.323200
0.082980 1.159600
0.083000 1.311100
0.083020 1.330500
0.083040 1.390900
0.083060 1.308700
0.083080 1.343400
0.083100 1.327300
0.083120 1.267600
0.083140 1.255500
0.083160 1.269200
0.083180 1.246700
0.083200 1.287800
0.083220 1.211200
0.083240 1.188600
0.083260 1.129000
0.083280 1.275700
0.083300 1.308700
0.083320 1.321600
0.083340 1.215200
0.083360 1.315200
0.083380 1.305500
0.083400 1.318400
0.083420 1.345800
0.083440 1.547300
0.083460 1.861500
0.083480 2.334600
0.083500 2.741500
0.083520 2.887400
0.083540 2.875300
0.083560 2.649700
0.083580 2.275800
0.083600 1.908300
0.083620 1.652000
0.083640 1.474700
0.083660 1.316800
0.083680 1.369200
0.083700 1.345000
0.083720 1.042800
0.083740 1.324000
0.083760 1.469900
0.083780 1.526300
0.083800 1.581900
0.083820 1.637500
0.083840 1.540800
0.083860 1.594800
0.083880 1.545600
0.083900 1.457800
0.083920 1.341000
0.083940 1.337700
0.083960 1.179800
0.083980 1.296600
0.084000 1.301500
0.084020 1.270000
0.084040 1.302300
0.084060 1.287000
0.084080 1.341800
0.084100 1.237800
0.084120 1.432000
0.084140 1.434400
0.084160 1.401400
0.084180 1.390100
0.084200 1.437700
0.084220 1.320800
0.084240 1.341800
0.084260 1.340100
0.084280 1.310300
0.084300 1.270000
0.084320 1.313600
0.084340 1.314400
0.084360 1.150800
0.084380 1.249900
0.084400 1.312700
0.084420 1.324000
0.084440 1.008900
0.084460 1.245100
0.084480 1.424800
0.084500 1.597200
0.084520 1.979200
0.084540 2.403900
0.084560 2.665800
0.084580 2.803600
0.084600 2.698000
0.084620 2.405500
0.084640 2.050100
0.084660 1.728600
0.084680 1.518200
0.084700 1.345800
0.084720 1.264400
0.084740 1.256300
0.084760 1.209600
0.084780 1.326400
0.084800 1.445700
0.084820 1.556900
0.084840 1.527900
0.084860 1.649600
0.084880 1.698800
0.084900 1.646400
0.084920 1.589200
0.084940 1.488400
0.084960 1.457800
0.084980 1.370000
0.085000 1.277300
0.085020 1.282900
0.085040 1.240200
0.085060 1.155600
0.085080 1.268400
0.085100 1.241800
0.085120 1.320800
0.085140 1.357900
0.085160 1.410300
0.085180 1.417500
0.085200 1.270800
0.085220 1.424000
0.085240 1.317600
0.085260 1.332900
0.085280 1.341800
0.085300 1.289400
0.085320 1.107300
0.085340 1.051600
0.085360 1.269200
0.085380 1.249100
0.085400 1.133800
0.085420 1.311100
0.085440 1.295800
0.085460 1.241800
0.085480 1.319200
0.085500 1.325600
0.085520 1.519900
0.085540 1.766400
0.085560 2.333800
0.085580 2.748800
0.085600 2.896300
0.085620 2.920400
0.085640 2.809200
0.085660 2.407900
0.085680 2.039600
0.085700 1.850300
0.085720 1.588400
0.085740 1.445700
0.085760 1.440100
0.085780 1.356300
0.085800 1.444900
0.085820 1.486000
0.085840 1.518200
0.085860 1.498900
0.085880 1.410300
0.085900 1.504500
0.085920 1.605300
0.085940 1.584300
0.085960 1.544800
0.085980 1.457000
0.086000 1.411100
0.086020 1.354700
0.086040 1.204000
0.086060 1.308700
0.086080 1.142700
0.086100 1.277300
0.086120 1.261200
0.086140 1.104800
0.086160 1.347400
0.086180 1.345000
0.086200 1.390100
0.086220 1.319200
0.086240 1.350600
0.086260 1.318400
0.086280 1.329700
0.086300 1.328100
0.086320 1.369200
0.086340 1.340100
0.086360 1.336900
0.086380 1.307100
0.086400 1.197500
0.086420 1.277300
0.086440 1.278900
0.086460 1.240200
0.086480 1.260400
0.086500 1.290200
0.086520 1.288600
0.086540 1.311900
0.086560 1.245900
0.086580 1.305500
0.086600 1.405400
0.086620 1.730200
0.086640 2.175800
0.086660 2.714100
0.086680 2.896300
0.086700 2.902700
0.086720 2.880100
0.086740 2.574700
0.086760 2.159700
0.086780 1.804300
0.086800 1.535200
0.086820 1.447300
0.086840 1.179800
0.086860 1.340100
0.086880 1.415100
0.086900 1.469100
0.086920 1.469100
0.086940 1.560100
0.086960 1.602100
0.086980 1.585100
0.087000 1.629500
0.087020 1.561800
0.087040 1.555300
0.087060 1.378000
0.087080 1.343400
0.087100 1.374000
0.087120 1.326400
0.087140 1.316000
0.087160 1.279700
0.087180 1.146700
0.087200 1.314400
0.087220 1.295800
0.087240 1.328900
0.087260 1.333700
0.087280 1.175800
0.087300 1.356300
0.087320 1.373200
0.087340 1.413500
0.087360 1.422300
0.087380 1.365900
0.087400 1.296600
0.087420 1.312700
0.087440 1.340100
0.087460 1.321600
0.087480 1.166100
0.087500 1.302300
0.087520 1.301500
0.087540 1.312700
0.087560 1.122600
0.087580 1.212800
0.087600 1.307100
0.087620 1.315200
0.087640 1.238600
0.087660 1.164500
0.087680 1.371600
0.087700 1.405400
0.087720 1.585900
0.087740 1.910700
0.087760 2.391800
0.087780 2.795500
0.087800 2.915600
0.087820 2.870500
0.087840 2.598900
0.087860 2.224200
0.087880 1.833300
0.087900 1.511000
0.087920 1.404600
0.087940 1.318400
0.087960 0.997700
0.087980 1.308700
0.088000 1.078200
0.088020 1.441700
0.088040 1.545600
0.088060 1.637500
0.088080 1.676200
0.088100 1.707600
0.088120 1.692300
0.088140 1.547300
0.088160 1.556900
0.088180 1.343400
0.088200 1.393300
0.088220 1.341000
0.088240 1.257100
0.088260 1.283700
0.088280 1.264400
0.088300 1.309500
0.088320 1.318400
0.088340 1.354700
0.088360 1.378000
0.088380 1.383700
0.088400 1.320000
0.088420 1.417500
0.088440 1.350600
0.088460 1.279700
0.088480 1.410300
0.088500 1.213600
0.088520 1.260400
0.088540 1.341000
0.088560 1.310300
0.088580 1.324800
0.088600 1.321600
0.088620 1.328100
0.088640 1.335300
0.088660 1.289400
0.088680 1.332900
0.088700 1.303900
0.088720 1.297400
0.088740 1.432000
0.088760 1.574700
0.088780 1.978400
0.088800 2.474800
0.088820 2.815700
0.088840 2.891400
0.088860 2.872100
0.088880 2.667400
0.088900 2.242700
0.088920 1.883300
0.088940 1.634300
0.088960 1.453000
0.088980 1.320000
0.089000 1.346600
0.089020 1.183000
0.089040 1.418300
0.089060 1.473100
0.089080 1.500500
0.089100 1.565800
0.089120 1.612500
0.089140 1.638300
0.089160 1.631900
0.089180 1.536800
0.089200 1.529500
0.089220 1.442500
0.089240 1.391700
0.089260 1.322400
0.089280 1.264400
0.089300 1.150000
0.089320 1.220900
0.089340 1.275700
0.089360 1.308700
0.089380 1.327300
0.089400 1.346600
0.089420 1.363500
0.089440 1.362700
0.089460 1.394900
0.089480 1.394100
0.089500 1.323200
0.089520 1.391700
0.089540 1.383700
0.089560 1.351400
0.089580 1.342600
0.089600 1.334500
0.089620 1.332900
0.089640 1.307900
0.089660 1.291800
0.089680 1.208800
0.089700 1.215200
0.089720 1.294200
0.089740 1.286200
0.089760 1.148400
0.089780 1.292600
0.089800 1.446500
0.089820 1.643200
0.089840 2.050900
0.089860 2.579600
0.089880 2.891400
0.089900 2.879300
0.089920 2.898700
0.089940 2.664200
0.089960 2.261200
0.089980 1.810800
0.090000 1.629500
0.090020 1.496500
0.090040 1.181400
0.090060 1.212800
0.090080 1.374800
0.090100 1.463400
0.090120 1.471500
0.090140 1.542400
0.090160 1.582700
0.090180 1.559300
0.090200 1.596400
0.090220 1.602900
0.090240 1.411900
0.090260 1.476300
0.090280 1.404600
0.090300 1.384500
0.090320 1.324800
0.090340 1.148400
0.090360 1.247500
0.090380 1.249100
0.090400 1.187000
0.090420 1.195100
0.090440 1.341800
0.090460 1.375600
0.090480 1.344200
0.090500 1.269200
0.090520 1.401400
0.090540 1.392500
0.090560 1.312700
0.090580 1.342600
0.090600 1.310300
0.090620 1.285300
0.090640 1.205600
0.090660 1.336900
0.090680 1.288600
0.090700 1.318400
0.090720 1.327300
0.090740 1.310300
0.090760 1.229700
0.090780 1.298200
0.090800 1.340100
0.090820 1.344200
0.090840 1.348200
0.090860 1.361900
0.090880 1.504500
0.090900 1.808400
0.090920 2.275800
0.090940 2.722200
0.090960 2.900300
0.090980 2.876900
0.091000 2.648900
0.091020 2.381300
0.091040 1.980800
0.091060 1.676200
0.091080 1.427200
0.091100 1.366700
0.091120 1.349000
0.091140 1.291800
0.091160 1.284500
0.091180 1.472300
0.091200 1.499700
0.091220 1.584300
0.091240 1.486800
0.091260 1.661700
0.091280 1.650400
0.091300 1.617400
0.091320 1.540000
0.091340 1.508600
0.091360 1.360300
0.091380 1.284500
0.091400 1.307900
0.091420 1.298200
0.091440 1.209600
0.091460 1.276500
0.091480 1.270800
0.091500 1.297400
0.091520 1.381200
0.091540 1.361100
0.091560 1.345000
0.091580 1.285300
0.091600 1.411100
0.091620 1.424800
0.091640 1.399000
0.091660 1.382100
0.091680 1.349800
0.091700 1.284500
0.091720 1.329700
0.091740 1.255500
0.091760 1.320800
0.091780 1.295000
0.091800 1.330500
0.091820 1.315200
0.091840 1.336900
0.091860 1.307100
0.091880 1.340100
0.091900 1.295800
0.091920 1.352200
0.091940 1.467500
0.091960 1.743900
0.091980 2.208100
0.092000 2.639200
0.092020 2.865600
0.092040 2.886600
0.092060 2.740700
0.092080 2.369200
0.092100 2.013800
0.092120 1.700400
0.092140 1.502900
0.092160 1.230500
0.092180 1.233000
0.092200 1.314400
0.092220 1.323200
0.092240 1.424800
0.092260 1.465100
0.092280 1.568200
0.092300 1.634300
0.092320 1.665700
0.092340 1.664900
0.092360 1.638300
0.092380 1.459400
0.092400 1.483600
0.092420 1.270000
0.092440 1.351400
0.092460 1.287000
0.092480 1.133000
0.092500 1.221700
0.092520 1.223300
0.092540 1.270000
0.092560 1.276500
0.092580 1.263600
0.092600 1.335300
0.092620 1.361900
0.092640 1.393300
0.092660 1.396600
0.092680 1.285300
0.092700 1.390900
0.092720 1.214400
0.092740 1.354700
0.092760 1.338500
0.092780 1.324800
0.092800 1.181400
0.092820 1.134700
0.092840 1.150000
0.092860 1.282100
0.092880 0.966200
0.092900 1.279700
0.092920 1.327300
0.092940 1.320800
0.092960 1.338500
0.092980 1.320000
0.093000 1.353800
0.093020 1.407800
0.093040 1.801100
0.093060 2.287800
0.093080 2.671400
0.093100 2.901900
0.093120 2.901900
0.093140 2.852700
0.093160 2.536000
0.093180 2.127500
0.093200 1.747100
0.093220 1.577900
0.093240 1.429600
0.093260 1.367500
0.093280 1.358700
0.093300 1.377200
0.093320 1.435200
0.093340 1.493300
0.093360 1.526300
0.093380 1.515000
0.093400 1.614100
0.093420 1.599600
0.093440 1.589200
0.093460 1.490000
0.093480 1.492500
0.093500 1.388500
0.093520 1.351400
0.093540 1.205600
0.093560 1.298200
0.093580 1.190300
0.093600 1.273300
0.093620 1.292600
0.093640 1.321600
0.093660 1.327300
0.093680 1.359500
0.093700 1.372400
0.093720 1.315200
0.093740 1.394900
0.093760 1.367500
0.093780 1.384500
0.093800 1.394900
0.093820 1.347400
0.093840 1.242600
0.093860 1.274100
0.093880 1.093600
0.093900 1.188600
0.093920 1.299900
0.093940 1.290200
0.093960 1.230500
0.093980 1.295000
0.094000 1.309500
0.094020 1.218500
0.094040 1.307900
0.094060 1.245100
0.094080 1.264400
0.094100 1.375600
0.094120 1.606900
0.094140 1.961500
0.094160 2.435300
0.094180 2.766500
0.094200 2.887400
0.094220 2.878500
0.094240 2.640800
0.094260 2.209700
0.094280 1.897800
0.094300 1.627000
0.094320 1.357100
0.094340 1.217700
0.094360 1.317600
0.094380 1.290200
0.094400 1.371600
0.094420 1.366700
0.094440 1.480400
0.094460 1.547300
0.094480 1.594800
0.094500 1.450500
0.094520 1.619800
0.094540 1.585100
0.094560 1.539200
0.094580 1.452200
0.094600 1.369200
0.094620 1.304700
0.094640 1.175800
0.094660 1.112100
0.094680 1.268400
0.094700 1.286200
0.094720 1.220100
0.094740 1.311900
0.094760 1.340100
0.094780 1.351400
0.094800 1.324000
0.094820 1.266000
0.094840 1.372400
0.094860 1.400600
0.094880 1.371600
0.094900 1.376400
0.094920 1.142700
0.094940 1.316800
0.094960 1.344200
0.094980 1.202300
0.095000 1.141900
0.095020 1.279700
0.095040 1.261200
0.095060 1.237800
0.095080 1.173300
0.095100 1.296600
0.095120 1.303900
0.095140 1.351400
0.095160 1.570600
0.095180 1.828500
0.095200 2.294300
0.095220 2.640000
0.095240 2.830200
0.095260 2.737500
0.095280 2.485300
0.095300 2.125100
0.095320 1.660900
0.095340 1.556100
0.095360 1.361900
0.095380 1.270800
0.095400 1.007300
0.095420 1.249900
0.095440 1.050800
0.095460 1.338500
0.095480 1.482000
0.095500 1.587500
0.095520 1.632700
0.095540 1.668900
0.095560 1.598800
0.095580 1.627000
0.095600 1.511800
0.095620 1.424800
0.095640 1.327300
0.095660 1.279700
0.095680 1.234600
0.095700 1.151600
0.095720 1.215200
0.095740 1.040400
0.095760 1.245900
0.095780 1.145900
0.095800 1.318400
0.095820 1.316000
0.095840 1.211200
0.095860 1.308700
0.095880 1.185400
0.095900 1.306300
0.095920 1.339300
0.095940 1.347400
0.095960 1.337700
0.095980 1.353000
0.096000 1.343400
0.096020 1.309500
0.096040 1.284500
0.096060 1.320800
0.096080 1.274900
0.096100 1.272500
0.096120 1.286200
0.096140 1.328100
0.096160 1.463400
0.096180 1.709200
0.096200 2.208900
0.096220 2.664200
0.096240 2.864000
0.096260 2.893000
0.096280 2.779400
0.096300 2.404700
0.096320 2.045300
0.096340 1.740700
0.096360 1.198300
0.096380 1.324800
0.096400 1.355500
0.096420 1.346600
0.096440 1.381200
0.096460 1.432000
0.096480 1.405400
0.096500 1.540000
0.096520 1.562600
0.096540 1.560100
0.096560 1.589200
0.096580 1.596400
0.096600 1.539200
0.096620 1.468300
0.096640 1.366700
0.096660 1.332900
0.096680 1.280500
0.096700 1.262800
0.096720 1.208000
0.096740 1.159600
0.096760 1.187800
0.096780 1.195100
0.096800 1.262800
0.096820 1.307900
0.096840 1.241000
0.096860 1.307900
0.096880 1.318400
0.096900 1.339300
0.096920 1.320800
0.096940 1.162100
0.096960 1.348200
0.096980 1.167700
0.097000 1.324000
0.097020 1.318400
0.097040 1.277300
0.097060 1.307100
0.097080 1.288600
0.097100 1.300700
0.097120 1.273300
0.097140 1.272500
0.097160 1.274100
0.097180 1.389300
0.097200 1.531100
0.097220 1.869600
0.097240 2.359600
0.097260 2.748800
0.097280 2.862400
0.097300 2.854400
0.097320 2.641600
0.097340 2.276600
0.097360 1.879300
0.097380 1.665700
0.097400 1.476300
0.097420 1.386100
0.097440 1.258800
0.097460 1.399000
0.097480 1.436000
0.097500 1.479600
0.097520 1.460200
0.097540 1.523100
0.097560 1.598000
0.097580 1.606100
0.097600 1.617400
0.097620 1.568200
0.097640 1.482800
0.097660 1.452200
0.097680 1.411100
0.097700 1.100800
0.097720 1.252300
0.097740 1.288600
0.097760 1.268400
0.097780 1.282100
0.097800 1.245900
0.097820 1.307100
0.097840 1.161200
0.097860 1.287000
0.097880 1.316000
0.097900 1.295000
0.097920 1.363500
0.097940 1.257900
0.097960 1.275700
0.097980 1.389300
0.098000 1.302300
0.098020 1.337700
0.098040 1.231400
0.098060 1.337700
0.098080 1.337700
0.098100 1.312700
0.098120 1.284500
0.098140 1.311100
0.098160 1.344200
0.098180 1.341000
0.098200 1.385300
0.098220 1.344200
0.098240 1.581100
0.098260 1.967900
0.098280 2.393400
0.098300 2.706100
0.098320 2.822100
0.098340 2.712500
0.098360 2.436900
0.098380 2.106500
0.098400 1.788200
0.098420 1.568200
0.098440 1.447300
0.098460 1.260400
0.098480 1.262800
0.098500 1.308700
0.098520 1.324800
0.098540 1.402200
0.098560 1.535200
0.098580 1.624600
0.098600 1.728600
0.098620 1.622200
0.098640 1.705200
0.098660 1.506200
0.098680 1.528700
0.098700 1.494100
0.098720 1.313600
0.098740 1.324000
0.098760 1.289400
0.098780 1.251500
0.098800 1.272500
0.098820 1.071000
0.098840 1.202300
0.098860 1.369200
0.098880 1.301500
0.098900 1.408600
0.098920 1.417500
0.098940 1.432000
0.098960 1.324000
0.098980 1.422300
0.099000 1.287000
0.099020 1.356300
0.099040 1.390900
0.099060 1.363500
0.099080 1.295800
0.099100 1.299000
0.099120 1.324000
0.099140 1.338500
0.099160 1.274100
0.099180 1.343400
0.099200 1.257900
0.099220 1.647200
0.099240 2.035600
0.099260 2.516700
0.099280 2.870500
0.099300 2.884200
0.099320 2.868100
0.099340 2.602900
0.099360 2.247500
0.099380 1.848600
0.099400 1.656800
0.099420 1.522300
0.099440 1.463400
0.099460 1.317600
0.099480 1.411900
0.099500 1.430400
0.099520 1.475500
0.099540 1.551300
0.099560 1.610900
0.099580 1.633500
0.099600 1.641500
0.099620 1.648000
0.099640 1.555300
0.099660 1.460200
0.099680 1.455400
0.099700 1.399800
0.099720 1.160400
0.099740 1.308700
0.099760 1.218500
0.099780 1.306300
0.099800 1.287800
0.099820 1.173300
0.099840 1.317600
0.099860 1.361100
0.099880 1.199100
0.099900 1.411900
0.099920 1.313600
0.099940 1.407000
0.099960 1.386900
0.099980 1.382900
0.100000 1.382100
0.100020 1.365100
0.100040 1.266000
0.100060 1.162100
0.100080 1.332100
0.100100 1.274900
0.100120 1.265200
0.100140 1.304700
0.100160 1.287000
0.100180 1.273300
0.100200 1.320800
0.100220 1.422300
0.100240 1.648000
0.100260 2.057400
0.100280 2.527200
0.100300 2.889000
0.100320 2.902700
0.100340 2.886600
0.100360 2.833400
0.100380 2.440100
0.100400 2.063800
0.100420 1.760000
0.100440 1.535200
0.100460 1.429600
0.100480 1.408600
0.100500 1.411100
0.100520 1.417500
0.100540 1.437700
0.100560 1.364300
0.100580 1.549700
0.100600 1.577100
0.100620 1.602900
0.100640 1.606100
0.100660 1.553700
0.100680 1.527100
0.100700 1.457000
0.100720 1.224900
0.100740 1.076600
0.100760 1.277300
0.100780 1.106400
0.100800 1.291800
0.100820 0.996800
0.100840 1.295000
0.100860 1.283700
0.100880 1.328900
0.100900 1.334500
0.100920 1.343400
0.100940 1.380400
0.100960 1.397400
0.100980 1.304700
0.101000 1.282900
0.101020 1.365100
0.101040 1.332100
0.101060 1.315200
0.101080 1.300700
0.101100 1.310300
0.101120 1.306300
0.101140 1.233800
0.101160 1.271600
0.101180 1.224900
0.101200 1.273300
0.101220 1.271600
0.101240 1.316000
0.101260 1.319200
0.101280 1.375600
0.101300 1.502900
0.101320 1.666500
0.101340 2.220100
0.101360 2.705300
0.101380 2.879300
0.101400 2.890600
0.101420 2.846300
0.101440 2.536000
0.101460 2.154900
0.101480 1.762400
0.101500 1.565800
0.101520 1.414300
0.101540 1.324800
0.101560 1.340100
0.101580 1.370000
0.101600 1.362700
0.101620 1.476300
0.101640 1.517400
0.101660 1.581100
0.101680 1.602100
0.101700 1.591600
0.101720 1.586700
0.101740 1.394900
0.101760 1.446500
0.101780 1.424000
0.101800 1.356300
0.101820 1.156400
0.101840 1.216800
0.101860 1.214400
0.101880 1.105600
0.101900 1.257100
0.101920 1.278900
0.101940 1.231400
0.101960 1.338500
0.101980 1.175800
0.102000 1.372400
0.102020 1.367500
0.102040 1.314400
0.102060 1.382900
0.102080 1.268400
0.102100 1.309500
0.102120 1.338500
0.102140 1.195100
0.102160 1.325600
0.102180 1.224100
0.102200 1.258800
0.102220 1.226500
0.102240 1.286200
0.102260 1.218500
0.102280 1.333700
0.102300 1.066200
0.102320 1.336900
0.102340 1.299900
0.102360 1.364300
0.102380 1.432000
0.102400 1.755200
0.102420 2.191100
0.102440 2.598100
0.102460 2.822100
0.102480 2.844700
0.102500 2.648100
0.102520 2.316000
0.102540 1.932500
0.102560 1.666500
0.102580 1.497300
0.102600 1.324000
0.102620 1.282900
0.102640 1.214400
0.102660 1.325600
0.102680 1.383700
0.102700 1.479600
0.102720 1.567400
0.102740 1.404600
0.102760 1.641500
0.102780 1.643200
0.102800 1.495700
0.102820 1.531100
0.102840 1.476300
0.102860 1.428000
0.102880 1.323200
0.102900 1.295000
0.102920 1.101600
0.102940 1.133000
0.102960 1.099200
0.102980 1.283700
0.103000 1.259600
0.103020 1.321600
0.103040 1.208800
0.103060 1.386100
0.103080 1.345800
0.103100 1.391700
0.103120 1.402200
0.103140 1.302300
0.103160 1.382100
0.103180 1.179000
0.103200 1.270800
0.103220 1.190300
0.103240 1.315200
0.103260 1.279700
0.103280 1.319200
0.103300 1.301500
0.103320 1.295000
0.103340 1.325600
0.103360 1.328900
0.103380 1.379600
0.103400 1.591600
0.103420 1.888100
0.103440 2.362800
0.103460 2.745600
0.103480 2.858400
0.103500 2.863200
0.103520 2.691600
0.103540 2.281400
0.103560 1.978400
0.103580 1.685100
0.103600 1.353000
0.103620 1.345800
0.103640 1.382100
0.103660 1.375600
0.103680 1.395800
0.103700 1.400600
0.103720 1.488400
0.103740 1.566600
0.103760 1.612500
0.103780 1.629500
0.103800 1.645600
0.103820 1.507000
0.103840 1.520700
0.103860 1.462600
0.103880 1.407800
0.103900 1.328900
0.103920 1.254700
0.103940 1.270000
0.103960 1.183800
0.103980 1.154000
0.104000 1.274900
0.104020 1.228100
0.104040 1.335300
0.104060 1.307100
0.104080 1.382900
0.104100 1.407000
0.104120 1.349000
0.104140 1.390100
0.104160 1.365900
0.104180 1.275700
0.104200 1.329700
0.104220 1.258800
0.104240 1.303100
0.104260 1.324800
0.104280 1.240200
0.104300 1.298200
0.104320 1.345800
0.104340 1.211200
0.104360 1.109700
0.104380 1.287000
0.104400 1.313600
0.104420 1.396600
0.104440 1.561800
0.104460 1.904200
0.104480 2.375700
0.104500 2.806800
0.104520 2.895500
0.104540 2.905100
0.104560 2.809200
0.104580 2.425600
0.104600 2.046100
0.104620 1.760000
0.104640 1.570600
0.104660 1.461000
0.104680 1.439300
0.104700 1.403000
0.104720 1.321600
0.104740 1.125800
0.104760 1.484400
0.104780 1.457000
0.104800 1.573000
0.104820 1.608500
0.104840 1.585100
0.104860 1.469100
0.104880 1.504500
0.104900 1.453800
0.104920 1.274900
0.104940 1.199100
0.104960 1.304700
0.104980 1.256300
0.105000 1.277300
0.105020 1.228900
0.105040 1.264400
0.105060 1.197500
0.105080 1.151600
0.105100 1.267600
0.105120 1.359500
0.105140 1.167700
0.105160 1.365100
0.105180 1.300700
0.105200 1.162100
0.105220 1.314400
0.105240 1.307900
0.105260 1.168500
0.105280 1.292600
0.105300 1.321600
0.105320 1.295000
0.105340 1.237000
0.105360 1.301500
0.105380 1.259600
0.105400 1.222500
0.105420 1.328100
0.105440 1.353800
0.105460 1.331300
0.105480 1.349800
0.105500 1.524700
0.105520 1.828500
0.105540 2.298300
0.105560 2.754400
0.105580 2.884200
0.105600 2.870500
0.105620 2.727000
0.105640 2.382900
0.105660 1.986400
0.105680 1.544000
0.105700 1.519000
0.105720 1.388500
0.105740 1.382100
0.105760 1.397400
0.105780 1.414300
0.105800 1.450500
0.105820 1.494900
0.105840 1.409500
0.105860 1.579500
0.105880 1.602100
0.105900 1.540000
0.105920 1.477100
0.105940 1.526300
0.105960 1.443300
0.105980 1.385300
0.106000 1.345800
0.106020 1.291000
0.106040 1.156400
0.106060 1.299000
0.106080 1.232200
0.106100 1.282100
0.106120 1.305500
0.106140 1.271600
0.106160 1.257100
0.106180 1.343400
0.106200 1.340100
0.106220 1.331300
0.106240 1.382900
0.106260 1.346600
0.106280 1.280500
0.106300 1.328100
0.106320 1.216000
0.106340 1.295000
0.106360 1.205600
0.106380 1.319200
0.106400 1.265200
0.106420 1.192700
0.106440 1.317600
0.106460 1.203200
0.106480 1.295000
0.106500 1.331300
0.106520 1.406200
0.106540 1.561800
0.106560 1.859100
0.106580 2.307200
0.106600 2.666600
0.106620 2.786700
0.106640 2.716600
0.106660 2.470000
0.106680 2.093600
0.106700 1.748700
0.106720 1.547300
0.106740 1.360300
0.106760 1.182200
0.106780 1.244200
0.106800 0.911400
0.106820 1.307900
0.106840 1.311100
0.106860 1.448900
0.106880 1.588400
0.106900 1.647200
0.106920 1.543200
0.106940 1.616600
0.106960 1.590800
0.106980 1.343400
0.107000 1.420700
0.107020 1.307900
0.107040 1.271600
0.107060 1.217700
0.107080 1.242600
0.107100 1.162100
0.107120 1.225700
0.107140 1.301500
0.107160 1.280500
0.107180 1.360300
0.107200 1.377200
0.107220 1.055700
0.107240 1.399800
0.107260 1.364300
0.107280 1.089500
0.107300 1.381200
0.107320 1.326400
0.107340 1.233800
0.107360 1.313600
0.107380 1.262000
0.107400 1.287800
0.107420 1.305500
0.107440 1.264400
0.107460 1.287000
0.107480 1.297400
0.107500 1.332100
0.107520 1.357900
0.107540 1.634300
0.107560 2.098500
0.107580 2.583600
0.107600 2.847900
0.107620 2.889800
0.107640 2.810000
0.107660 2.457100
0.107680 2.075100
0.107700 1.747100
0.107720 1.502100
0.107740 1.457000
0.107760 1.312700
0.107780 1.401400
0.107800 1.344200
0.107820 1.432800
0.107840 1.278100
0.107860 1.453800
0.107880 1.573800
0.107900 1.550500
0.107920 1.610900
0.107940 1.581100
0.107960 1.527100
0.107980 1.479600
0.108000 1.367500
0.108020 1.272500
0.108040 1.211200
0.108060 1.140300
0.108080 1.170100
0.108100 1.243400
0.108120 1.269200
0.108140 1.178200
0.108160 1.251500
0.108180 1.301500
0.108200 1.307900
0.108220 1.370000
0.108240 1.347400
0.108260 1.257900
0.108280 1.338500
0.108300 1.242600
0.108320 1.353000
0.108340 1.175800
0.108360 1.320000
0.108380 1.324800
0.108400 1.290200
0.108420 1.278100
0.108440 1.278100
0.108460 1.198300
0.108480 1.191900
0.108500 1.308700
0.108520 1.345800
0.108540 1.303900
0.108560 1.353000
0.108580 1.421500
0.108600 1.830100
0.108620 2.272500
0.108640 2.756000
0.108660 2.881000
0.108680 2.860800
0.108700 2.796300
0.108720 2.421600
0.108740 2.049300
0.108760 1.727000
0.108780 1.544800
0.108800 1.450500
0.108820 1.419900
0.108840 1.349800
0.108860 1.263600
0.108880 1.436800
0.108900 1.450500
0.108920 1.521500
0.108940 1.534400
0.108960 1.585100
0.108980 1.567400
0.109000 1.450500
0.109020 1.541600
0.109040 1.197500
0.109060 1.220900
0.109080 1.316800
0.109100 1.307100
0.109120 1.155600
0.109140 1.274100
0.109160 1.201500
0.109180 1.262800
0.109200 1.268400
0.109220 1.314400
0.109240 1.189500
0.109260 1.345000
0.109280 1.302300
0.109300 1.352200
0.109320 1.324800
0.109340 1.310300
0.109360 1.345800
0.109380 1.348200
0.109400 1.316800
0.109420 1.328900
0.109440 1.280500
0.109460 1.278900
0.109480 1.297400
0.109500 1.214400
0.109520 1.267600
0.109540 1.254700
0.109560 1.292600
0.109580 1.341000
0.109600 1.266800
0.109620 1.323200
0.109640 1.009700
0.109660 1.345800
0.109680 1.521500
0.109700 1.971100
0.109720 2.420000
0.109740 2.785900
0.109760 2.869700
0.109780 2.745600
0.109800 2.522300
0.109820 2.183900
0.109840 1.840600
0.109860 1.637500
0.109880 1.303100
0.109900 1.378800
0.109920 1.355500
0.109940 1.313600
0.109960 1.389300
0.109980 1.477900
0.110000 1.531100
0.110020 1.569800
0.110040 1.639100
0.110060 1.649600
0.110080 1.635100
0.110100 1.592400
0.110120 1.446500
0.110140 1.465900
0.110160 1.379600
0.110180 1.332100
0.110200 1.259600
0.110220 1.261200
0.110240 1.217700
0.110260 1.268400
0.110280 1.224100
0.110300 1.273300
0.110320 1.345800
0.110340 1.378800
0.110360 1.407000
0.110380 1.378000
0.110400 1.310300
0.110420 1.378000
0.110440 1.292600
0.110460 1.202300
0.110480 1.324800
0.110500 1.282100
0.110520 1.291800
0.110540 1.335300
0.110560 1.327300
0.110580 1.345800
0.110600 1.300700
0.110620 1.249100
0.110640 1.241800
0.110660 1.287800
0.110680 1.183800
0.110700 1.502100
0.110720 1.774500
0.110740 2.202400
0.110760 2.597300
0.110780 2.802800
0.110800 2.773000
0.110820 2.567500
0.110840 2.256400
0.110860 1.913900
0.110880 1.660900
0.110900 1.486000
0.110920 1.383700
0.110940 1.220100
0.110960 1.312700
0.110980 1.204800
0.111000 1.221700
0.111020 1.470700
0.111040 1.537600
0.111060 1.496500
0.111080 1.613300
0.111100 1.613300
0.111120 1.595600
0.111140 1.536000
0.111160 1.438500
0.111180 1.287800
0.111200 1.299900
0.111220 1.285300
0.111240 1.233000
0.111260 1.217700
0.111280 1.205600
0.111300 1.237000
0.111320 1.276500
0.111340 1.277300
0.111360 1.117700
0.111380 1.299900
0.111400 1.373200
0.111420 1.340100
0.111440 1.342600
0.111460 1.279700
0.111480 1.319200
0.111500 1.262000
0.111520 1.328100
0.111540 1.325600
0.111560 1.297400
0.111580 1.309500
0.111600 1.326400
0.111620 1.230500
0.111640 1.310300
0.111660 1.320800
0.111680 1.327300
0.111700 1.095200
0.111720 1.552900
0.111740 1.876000
0.111760 2.395800
0.111780 2.773800
0.111800 2.897900
0.111820 2.885000
0.111840 2.672200
0.111860 2.317700
0.111880 1.909900
0.111900 1.658500
0.111920 1.507800
0.111940 1.419100
0.111960 1.270000
0.111980 1.288600
0.112000 1.391700
0.112020 1.427200
0.112040 1.459400
0.112060 1.527100
0.112080 1.577900
0.112100 1.580300
0.112120 1.569000
0.112140 1.519900
0.112160 1.497300
0.112180 1.435200
0.112200 1.223300
0.112220 1.204800
0.112240 1.290200
0.112260 1.264400
0.112280 1.230500
0.112300 1.076600
0.112320 1.224100
0.112340 1.237800
0.112360 1.287800
0.112380 1.321600
0.112400 1.040400
0.112420 1.353800
0.112440 1.346600
0.112460 1.312700
0.112480 1.270000
0.112500 1.126600
0.112520 1.303900
0.112540 1.331300
0.112560 1.260400
0.112580 1.315200
0.112600 1.248300
0.112620 1.162100
0.112640 1.301500
0.112660 1.209600
0.112680 1.216000
0.112700 1.261200
0.112720 1.349000
0.112740 1.395800
0.112760 1.523900
0.112780 1.816400
0.112800 2.283000
0.112820 2.689200
0.112840 2.848700
0.112860 2.874500
0.112880 2.704500
0.112900 2.367600
0.112920 1.983200
0.112940 1.718100
0.112960 1.539200
0.112980 1.431200
0.113000 1.396600
0.113020 1.332900
0.113040 1.421500
0.113060 1.429600
0.113080 1.500500
0.113100 1.560100
0.113120 1.568200
0.113140 1.598800
0.113160 1.621400
0.113180 1.585100
0.113200 1.507800
0.113220 1.412700
0.113240 1.352200
0.113260 1.340100
0.113280 1.199900
0.113300 1.176600
0.113320 1.140300
0.113340 1.250700
0.113360 1.247500
0.113380 1.234600
0.113400 1.293400
0.113420 1.249900
0.113440 1.372400
0.113460 1.376400
0.113480 1.389300
0.113500 1.253100
0.113520 1.320800
0.113540 1.360300
0.113560 1.295800
0.113580 1.340100
0.113600 1.286200
0.113620 1.313600
0.113640 1.321600
0.113660 1.308700
0.113680 1.220100
0.113700 1.256300
0.113720 1.221700
0.113740 1.266800
0.113760 1.323200
0.113780 1.326400
0.113800 1.314400
0.113820 1.407800
0.113840 1.691500
0.113860 2.090400
0.113880 2.518300
0.113900 2.796300
0.113920 2.881000
0.113940 2.681900
0.113960 2.449800
0.113980 2.059800
0.114000 1.634300
0.114020 1.495700
0.114040 1.413500
0.114060 1.320800
0.114080 1.303100
0.114100 1.198300
0.114120 1.309500
0.114140 1.319200
0.114160 1.556100
0.114180 1.581100
0.114200 1.666500
0.114220 1.679400
0.114240 1.635900
0.114260 1.609300
0.114280 1.533600
0.114300 1.452200
0.114320 1.274100
0.114340 1.333700
0.114360 1.197500
0.114380 1.252300
0.114400 1.289400
0.114420 1.249900
0.114440 1.299000
0.114460 1.329700
0.114480 1.386100
0.114500 1.250700
0.114520 1.428000
0.114540 1.417500
0.114560 1.372400
0.114580 1.393300
0.114600 1.394900
0.114620 1.384500
0.114640 1.237000
0.114660 1.366700
0.114680 1.307100
0.114700 1.241000
0.114720 1.351400
0.114740 1.046800
0.114760 1.337700
0.114780 1.338500
0.114800 1.350600
0.114820 1.388500
0.114840 1.574700
0.114860 1.907500
0.114880 2.439300
0.114900 2.735900
0.114920 2.891400
0.114940 2.852700
0.114960 2.698800
0.114980 2.332200
0.115000 1.952600
0.115020 1.541600
0.115040 1.518200
0.115060 1.357100
0.115080 1.358700
0.115100 1.311100
0.115120 1.301500
0.115140 1.124200
0.115160 1.531100
0.115180 1.563400
0.115200 1.635900
0.115220 1.665700
0.115240 1.641500
0.115260 1.635100
0.115280 1.562600
0.115300 1.390100
0.115320 1.245100
0.115340 1.282900
0.115360 1.285300
0.115380 1.276500
0.115400 1.221700
0.115420 1.163700
0.115440 1.266000
0.115460 1.173300
0.115480 1.293400
0.115500 1.364300
0.115520 1.383700
0.115540 1.391700
0.115560 1.280500
0.115580 1.360300
0.115600 1.390900
0.115620 1.340100
0.115640 1.315200
0.115660 1.218500
0.115680 1.250700
0.115700 1.287000
0.115720 1.253100
0.115740 1.307100
0.115760 1.282900
0.115780 1.192700
0.115800 1.288600
0.115820 1.308700
0.115840 1.321600
0.115860 1.299900
0.115880 1.367500
0.115900 1.605300
0.115920 1.984800
0.115940 2.536800
0.115960 2.882600
0.115980 2.880100
0.116000 2.893800
0.116020 2.843100
0.116040 2.431300
0.116060 2.063000
0.116080 1.722900
0.116100 1.389300
0.116120 1.364300
0.116140 1.299000
0.116160 1.362700
0.116180 1.408600
0.116200 1.453800
0.116220 1.490800
0.116240 1.457000
0.116260 1.598800
0.116280 1.609300
0.116300 1.538400
0.116320 1.421500
0.116340 1.534400
0.116360 1.363500
0.116380 1.398200
0.116400 1.349000
0.116420 1.204000
0.116440 1.287800
0.116460 1.278900
0.116480 1.198300
0.116500 1.242600
0.116520 1.294200
0.116540 1.174100
0.116560 1.353000
0.116580 1.199100
0.116600 1.205600
0.116620 1.370800
0.116640 1.386900
0.116660 1.392500
0.116680 1.363500
0.116700 1.213600
0.116720 1.332100
0.116740 1.279700
0.116760 1.320800
0.116780 1.330500
0.116800 1.161200
0.116820 1.314400
0.116840 1.251500
0.116860 1.303100
0.116880 1.195900
0.116900 1.185400
0.116920 1.308700
0.116940 1.343400
0.116960 1.357900
0.116980 1.551300
0.117000 1.839800
0.117020 2.294300
0.117040 2.740700
0.117060 2.868100
0.117080 2.872900
0.117100 2.753600
0.117120 2.376500
0.117140 1.956600
0.117160 1.530300
0.117180 1.351400
0.117200 1.309500
0.117220 1.307100
0.117240 1.222500
0.117260 1.292600
0.117280 1.373200
0.117300 1.469900
0.117320 1.605300
0.117340 1.505300
0.117360 1.614100
0.117380 1.698800
0.117400 1.688300
0.117420 1.578700
0.117440 1.558500
0.117460 1.411900
0.117480 1.379600
0.117500 1.308700
0.117520 1.295800
0.117540 1.221700
0.117560 1.239400
0.117580 1.300700
0.117600 1.285300
0.117620 1.312700
0.117640 1.380400
0.117660 1.391700
0.117680 1.377200
0.117700 1.384500
0.117720 1.419900
0.117740 1.288600
0.117760 1.325600
0.117780 1.154800
0.117800 1.339300
0.117820 1.362700
0.117840 1.329700
0.117860 1.328100
0.117880 1.317600
0.117900 1.313600
0.117920 1.290200
0.117940 1.342600
0.117960 1.393300
0.117980 1.640700
0.118000 2.023500
0.118020 2.511900
0.118040 2.841500
0.118060 2.883400
0.118080 2.856800
0.118100 2.559400
0.118120 2.162900
0.118140 1.764800
0.118160 1.554500
0.118180 1.376400
0.118200 1.286200
0.118220 1.138700
0.118240 1.308700
0.118260 1.287000
0.118280 1.400600
0.118300 1.342600
0.118320 1.582700
0.118340 1.646400
0.118360 1.659300
0.118380 1.618200
0.118400 1.599600
0.118420 1.527900
0.118440 1.453000
0.118460 1.378800
0.118480 1.310300
0.118500 1.226500
0.118520 1.233000
0.118540 1.216000
0.118560 1.194300
0.118580 1.281300
0.118600 1.306300
0.118620 1.364300
0.118640 1.279700
0.118660 1.382100
0.118680 1.403800
0.118700 1.395800
0.118720 1.336100
0.118740 1.287800
0.118760 1.369200
0.118780 1.313600
0.118800 1.301500
0.118820 1.337700
0.118840 1.266800
0.118860 1.149200
0.118880 1.331300
0.118900 1.053300
0.118920 1.303100
0.118940 1.308700
0.118960 1.306300
0.118980 1.364300
0.119000 1.469900
0.119020 1.813200
0.119040 2.337800
0.119060 2.822900
0.119080 2.903500
0.119100 2.907500
0.119120 2.887400
0.119140 2.624700
0.119160 2.246700
0.119180 1.797100
0.119200 1.578700
0.119220 1.339300
0.119240 1.333700
0.119260 1.394900
0.119280 1.406200
0.119300 1.454600
0.119320 1.491600
0.119340 1.555300
0.119360 1.572200
0.119380 1.606100
0.119400 1.494900
0.119420 1.606100
0.119440 1.552900
0.119460 1.372400
0.119480 1.412700
0.119500 1.353800
0.119520 1.300700
0.119540 1.253900
0.119560 1.143500
0.119580 1.252300
0.119600 1.218500
0.119620 1.292600
0.119640 1.324800
0.119660 1.346600
0.119680 1.388500
0.119700 1.308700
0.119720 1.386100
0.119740 1.386100
0.119760 1.370800
0.119780 1.277300
0.119800 1.242600
0.119820 1.145900
0.119840 1.324000
0.119860 1.333700
0.119880 1.278900
0.119900 1.150000
0.119920 1.282900
0.119940 1.319200
0.119960 1.191900
0.119980 1.305500
0.120000 1.320800
0.120020 1.344200
0.120040 1.320000
0.120060 1.408600
0.120080 1.618200
0.120100 2.005000
0.120120 2.541700
0.120140 2.885000
0.120160 2.883400
0.120180 2.879300
0.120200 2.831800
0.120220 2.340200
0.120240 1.941300
0.120260 1.664100
0.120280 1.449700
0.120300 1.336900
0.120320 1.317600
0.120340 1.250700
0.120360 1.357100
0.120380 1.116900
0.120400 1.496500
0.120420 1.576300
0.120440 1.617400
0.120460 1.513400
0.120480 1.608500
0.120500 1.557700
0.120520 1.485200
0.120540 1.448100
0.120560 1.354700
0.120580 1.294200
0.120600 1.245900
0.120620 1.219300
0.120640 1.243400
0.120660 1.212000
0.120680 1.272500
0.120700 1.233800
0.120720 1.272500
0.120740 1.245900
0.120760 1.349000
0.120780 1.302300
0.120800 1.382100
0.120820 1.389300
0.120840 1.370000
0.120860 1.179000
0.120880 1.344200
0.120900 1.288600
0.120920 1.311900
0.120940 1.204000
0.120960 1.257100
0.120980 1.228100
0.121000 1.302300
0.121020 1.291800
0.121040 1.322400
0.121060 1.308700
0.121080 1.332100
0.121100 1.331300
0.121120 1.308700
0.121140 1.399000
0.121160 1.643200
0.121180 2.009800
0.121200 2.488500
0.121220 2.752000
0.121240 2.903500
0.121260 2.827800
0.121280 2.500600
0.121300 2.107300
0.121320 1.631100
0.121340 1.268400
0.121360 1.320800
0.121380 1.208000
0.121400 0.944500
0.121420 1.230500
0.121440 1.305500
0.121460 1.341000
0.121480 1.504500
0.121500 1.606900
0.121520 1.693900
0.121540 1.695500
0.121560 1.670500
0.121580 1.631900
0.121600 1.228100
0.121620 1.437700
0.121640 1.345800
0.121660 1.264400
0.121680 1.215200
0.121700 1.132200
0.121720 1.204800
0.121740 1.212000
0.121760 1.297400
0.121780 1.307100
0.121800 1.357900
0.121820 1.332900
0.121840 1.395800
0.121860 1.247500
0.121880 1.226500
0.121900 1.383700
0.121920 1.351400
0.121940 1.386100
0.121960 1.346600
0.121980 1.351400
0.122000 1.109700
0.122020 1.203200
0.122040 1.307900
0.122060 1.292600
0.122080 1.228100
0.122100 1.220100
0.122120 1.279700
0.122140 1.247500
0.122160 1.381200
0.122180 1.617400
0.122200 2.104100
0.122220 2.600500
0.122240 2.846300
0.122260 2.884200
0.122280 2.778600
0.122300 2.470800
0.122320 2.075100
0.122340 1.736600
0.122360 1.512600
0.122380 1.321600
0.122400 1.295800
0.122420 1.177400
0.122440 1.286200
0.122460 1.256300
0.122480 1.420700
0.122500 1.502900
0.122520 1.590800
0.122540 1.644800
0.122560 1.652000
0.122580 1.640700
0.122600 1.480400
0.122620 1.470700
0.122640 1.365900
0.122660 1.336900
0.122680 1.010500
0.122700 1.216000
0.122720 1.185400
0.122740 1.210400
0.122760 1.254700
0.122780 1.037100
0.122800 1.299900
0.122820 1.315200
0.122840 1.279700
0.122860 1.370800
0.122880 1.275700
0.122900 1.377200
0.122920 1.389300
0.122940 1.311900
0.122960 1.302300
0.122980 1.308700
0.123000 1.311100
0.123020 1.278900
0.123040 1.135500
0.123060 1.275700
0.123080 0.938800
0.123100 1.249100
0.123120 1.257100
0.123140 1.278100
0.123160 1.285300
0.123180 1.175800
0.123200 1.127400
0.123220 1.398200
0.123240 1.665700
0.123260 2.070300
0.123280 2.557000
0.123300 2.851900
0.123320 2.879300
0.123340 2.896300
0.123360 2.653700
0.123380 2.210500
0.123400 1.873600
0.123420 1.617400
0.123440 1.403000
0.123460 1.365100
0.123480 1.356300
0.123500 1.352200
0.123520 1.385300
0.123540 1.405400
0.123560 1.443300
0.123580 1.530300
0.123600 1.594800
0.123620 1.485200
0.123640 1.613300
0.123660 1.564200
0.123680 1.278900
0.123700 1.424000
0.123720 1.336100
0.123740 1.287000
0.123760 1.296600
0.123780 1.257100
0.123800 1.212800
0.123820 1.253100
0.123840 1.140300
0.123860 1.255500
0.123880 1.349000
0.123900 1.316800
0.123920 1.331300
0.123940 1.361100
0.123960 1.394100
0.123980 1.236200
0.124000 1.286200
0.124020 1.317600
0.124040 1.146700
0.124060 1.303100
0.124080 1.331300
0.124100 1.255500
0.124120 1.253900
0.124140 1.297400
0.124160 1.266800
0.124180 1.249100
0.124200 1.219300
0.124220 1.220100
0.124240 1.177400
0.124260 1.307900
0.124280 1.309500
0.124300 1.283700
0.124320 1.382900
0.124340 1.776100
0.124360 2.240300
0.124380 2.655300
0.124400 2.881800
0.124420 2.856000
0.124440 2.802800
0.124460 2.459500
0.124480 2.076700
0.124500 1.739000
0.124520 1.515000
0.124540 1.415100
0.124560 1.305500
0.124580 1.324800
0.124600 1.233800
0.124620 1.308700
0.124640 1.183000
0.124660 1.490800
0.124680 1.515800
0.124700 1.622200
0.124720 1.617400
0.124740 1.567400
0.124760 1.537600
0.124780 1.474700
0.124800 1.404600
0.124820 1.327300
0.124840 1.108900
0.124860 1.254700
0.124880 1.081500
0.124900 1.245100
0.124920 1.269200
0.124940 1.295000
0.124960 1.253100
0.124980 1.316000
0.125000 1.363500
0.125020 1.347400
0.125040 1.341800
0.125060 1.385300
0.125080 1.350600
0.125100 1.380400
0.125120 1.324000
0.125140 1.316000
0.125160 1.311900
0.125180 1.183800
0.125200 1.300700
0.125220 1.204800
0.125240 1.292600
0.125260 1.231400
0.125280 1.262800
0.125300 1.166900
0.125320 1.197500
0.125340 1.324800
0.125360 1.207200
0.125380 1.257100
0.125400 1.522300
0.125420 1.713300
0.125440 2.205600
0.125460 2.561800
0.125480 2.781800
0.125500 2.734300
0.125520 2.561000
0.125540 2.239500
0.125560 1.869600
0.125580 1.603700
0.125600 1.311100
0.125620 1.282900
0.125640 1.129800
0.125660 1.000900
0.125680 1.189500
0.125700 1.156400
0.125720 1.392500
0.125740 1.556900
0.125760 1.339300
0.125780 1.694700
0.125800 1.649600
0.125820 1.666500
0.125840 1.598800
0.125860 1.507800
0.125880 1.319200
0.125900 1.313600
0.125920 1.260400
0.125940 1.091100
0.125960 1.182200
0.125980 1.240200
0.126000 1.062100
0.126020 1.190300
0.126040 1.295800
0.126060 1.337700
0.126080 1.363500
0.126100 1.393300
0.126120 1.354700
0.126140 1.372400
0.126160 1.407800
0.126180 1.390900
0.126200 1.320000
0.126220 1.361900
0.126240 1.316800
0.126260 1.314400
0.126280 1.206400
0.126300 1.303100
0.126320 1.293400
0.126340 1.243400
0.126360 1.201500
0.126380 1.332900
0.126400 1.416700
0.126420 1.712500
0.126440 2.132300
0.126460 2.602100
0.126480 2.856000
0.126500 2.887400
0.126520 2.819700
0.126540 2.485300
0.126560 2.099300
0.126580 1.770500
0.126600 1.550500
0.126620 1.388500
0.126640 1.262800
0.126660 1.309500
0.126680 1.114500
0.126700 1.316800
0.126720 1.446500
0.126740 1.480400
0.126760 1.555300
0.126780 1.597200
0.126800 1.624600
0.126820 1.613300
0.126840 1.548900
0.126860 1.494900
0.126880 1.408600
0.126900 1.352200
0.126920 1.276500
0.126940 1.247500
0.126960 1.222500
0.126980 1.194300
0.127000 0.975100
0.127020 1.183800
0.127040 1.297400
0.127060 1.275700
0.127080 1.190300
0.127100 1.368400
0.127120 1.348200
0.127140 1.365900
0.127160 1.379600
0.127180 1.222500
0.127200 1.291800
0.127220 1.168500
0.127240 1.315200
0.127260 1.255500
0.127280 1.301500
0.127300 1.101600
0.127320 1.284500
0.127340 1.274900
0.127360 1.262800
0.127380 1.284500
0.127400 1.263600
0.127420 1.163700
0.127440 1.383700
0.127460 1.598000
0.127480 1.929200
0.127500 2.416800
0.127520 2.787500
0.127540 2.879300
0.127560 2.885800
0.127580 2.658500
0.127600 2.272500
0.127620 1.805100
0.127640 1.588400
0.127660 1.451400
0.127680 1.161200
0.127700 1.295800
0.127720 1.279700
0.127740 1.313600
0.127760 1.429600
0.127780 1.367500
0.127800 1.548100
0.127820 1.531100
0.127840 1.606100
0.127860 1.613300
0.127880 1.486800
0.127900 1.493300
0.127920 1.417500
0.127940 1.358700
0.127960 1.268400
0.127980 1.246700
0.128000 1.181400
0.128020 1.162100
0.128040 1.158000
0.128060 1.278900
0.128080 1.262000
0.128100 1.295800
0.128120 1.328100
0.128140 1.350600
0.128160 1.219300
0.128180 1.243400
0.128200 1.360300
0.128220 1.317600
0.128240 1.350600
0.128260 1.299900
0.128280 1.270800
0.128300 1.260400
0.128320 1.283700
0.128340 1.281300
0.128360 1.138700
0.128380 1.260400
0.128400 0.999300
0.128420 1.334500
0.128440 1.336900
0.128460 1.304700
0.128480 1.328100
0.128500 1.416700
0.128520 1.634300
0.128540 2.017900
0.128560 2.470000
0.128580 2.797100
0.128600 2.860800
0.128620 2.760100
0.128640 2.474800
0.128660 2.108100
0.128680 1.552100
0.128700 1.564200
0.128720 1.375600
0.128740 1.258800
0.128760 1.320800
0.128780 1.233000
0.128800 1.295000
0.128820 1.423200
0.128840 1.536000
0.128860 1.605300
0.128880 1.643200
0.128900 1.623800
0.128920 1.634300
0.128940 1.582700
0.128960 1.507800
0.128980 1.358700
0.129000 1.327300
0.129020 1.212000
0.129040 1.231400
0.129060 1.230500
0.129080 1.206400
0.129100 1.227300
0.129120 1.288600
0.129140 1.307100
0.129160 1.348200
0.129180 1.314400
0.129200 1.376400
0.129220 1.378800
0.129240 1.390100
0.129260 1.359500
0.129280 1.378800
0.129300 1.389300
0.129320 1.371600
0.129340 1.284500
0.129360 1.259600
0.129380 1.281300
0.129400 1.249900
0.129420 1.306300
0.129440 1.305500
0.129460 1.278900
0.129480 1.273300
0.129500 1.406200
0.129520 1.714900
0.129540 2.106500
0.129560 2.606200
0.129580 2.768900
0.129600 2.851900
0.129620 2.694800
0.129640 2.300700
0.129660 1.988900
0.129680 1.714100
0.129700 1.500500
0.129720 1.345000
0.129740 1.345800
0.129760 1.333700
0.129780 1.324800
0.129800 1.400600
0.129820 1.209600
0.129840 1.478800
0.129860 1.456200
0.129880 1.605300
0.129900 1.549700
0.129920 1.545600
0.129940 1.382100
0.129960 1.391700
0.129980 1.417500
0.130000 1.338500
0.130020 1.299000
0.130040 1.261200
0.130060 1.237000
0.130080 1.223300
0.130100 1.230500
0.130120 1.252300
0.130140 1.234600
0.130160 1.360300
0.130180 1.352200
0.130200 1.046000
0.130220 1.372400
0.130240 1.390900
0.130260 1.371600
0.130280 1.145900
0.130300 1.298200
0.130320 1.280500
0.130340 1.185400
0.130360 1.164500
0.130380 1.295000
0.130400 1.275700
0.130420 1.292600
0.130440 1.300700
0.130460 1.278100
0.130480 1.323200
0.130500 1.301500
0.130520 1.217700
0.130540 1.353800
0.130560 1.556100
0.130580 1.864800
